timestamp,Outer forearm sensor value (1),Inner forearm sensor value (2),left mouse button,right mouse button
166831800.0,-0.04988498128567013,-0.03366031062613521,0.0,0.0
166833456.0,-0.04233878380570513,-0.040426269461135034,0.0,0.0
166835112.0,-0.057849135489995394,-0.027396841504781725,0.0,0.0
166836768.0,0.005961355052519211,-0.023758477253281278,0.0,0.0
166838424.0,0.011167777246616523,-0.0012927615178497823,0.0,0.0
166840080.0,0.05063125529188752,0.020845501434944964,0.0,0.0
166841736.0,0.06962615533970055,0.03096184997155372,0.0,0.0
166843400.0,0.055069342363426706,0.0290857548424064,0.0,0.0
166845052.0,0.03880298838284968,0.026299188344966567,0.0,0.0
166846708.0,0.013846747570144114,0.023681470409148853,0.0,0.0
166848364.0,-0.029645521384310085,0.021314543458106974,0.0,0.0
166850020.0,-0.06089172866562363,-0.010816788878720401,0.0,0.0
166851676.0,-0.06822363174103856,-0.05273509778994946,0.0,0.0
166853332.0,-0.06274337616113186,-0.06176158679086406,0.0,0.0
166854988.0,-0.036603249304433844,-0.017015427989765762,0.0,0.0
166856648.0,-0.0009563454499399355,-0.001456885178591407,0.0,0.0
166858304.0,0.03233794698746196,7.450334048751152e-05,0.0,0.0
166859960.0,0.05242401807795371,0.030205623006559032,0.0,0.0
166861616.0,0.05951360284908668,0.050198917705915155,0.0,0.0
166863272.0,0.054795441222072555,0.037480411635327684,0.0,0.0
166864928.0,0.05943921696565759,0.04296250904179135,0.0,0.0
166866588.0,0.014507627255666514,-0.00041072800538530675,0.0,0.0
166868240.0,-0.03084190227124438,-0.014277353819144255,0.0,0.0
166869900.0,-0.04214758872425607,-0.014240388298664693,0.0,0.0
166871556.0,-0.05937181751984124,-0.0229554264549383,0.0,0.0
166873212.0,-0.07557853453465763,-0.041673791508061324,0.0,0.0
166874868.0,-0.08023507095787191,-0.0396078031271146,0.0,0.0
166876524.0,-0.02343300284975272,-0.025857161891387946,0.0,0.0
166878184.0,0.03378815353645348,-0.0022924596099464923,0.0,0.0
166879840.0,0.05589712379292895,0.02003468496027672,0.0,0.0
166881496.0,0.06285618997464984,0.07024100632516736,0.0,0.0
166883152.0,0.06782544883329363,0.058437884678746436,0.0,0.0
166884808.0,0.06216839173557287,0.012116194109481938,0.0,0.0
166886464.0,0.04606410134057531,-0.00314321551160638,0.0,0.0
166888120.0,-0.019531053915629665,-0.004233672981455775,0.0,0.0
166889780.0,-0.05367682303627974,-0.023950783585411202,0.0,0.0
166891436.0,-0.07191902818387591,-0.04356975301708473,0.0,0.0
166893092.0,-0.06708811411060846,-0.0414141824944,0.0,0.0
166894748.0,-0.05061540157405963,-0.03749290472285839,0.0,0.0
166896404.0,-0.01457747130410032,-0.023765628298361256,0.0,0.0
166898060.0,0.009977914837561068,-0.00039126687330627227,0.0,0.0
166899724.0,0.06128988725492783,0.03174763967355022,0.0,0.0
166901376.0,0.0503918749195462,0.04178285369215006,0.0,0.0
166903032.0,0.05487578506660837,0.03892556612152542,0.0,0.0
166904684.0,0.05034051632384922,0.035165109289233054,0.0,0.0
166906344.0,0.015401695667851052,0.021661808338293495,0.0,0.0
166908000.0,-0.01912895080129538,-0.0015030514977369142,0.0,0.0
166909656.0,-0.05051510341139573,-0.013452614248186171,0.0,0.0
166911312.0,-0.05879349783928198,-0.03331733961338644,0.0,0.0
166912968.0,-0.05424713853225637,-0.032106604331049116,0.0,0.0
166914624.0,-0.05895572372672668,-0.03910804376584604,0.0,0.0
166916284.0,-0.014073481258820757,-0.03621844937605333,0.0,0.0
166917940.0,0.021232533876589195,-0.022698725437122636,0.0,0.0
166919596.0,0.06249914718988136,0.010560935006719892,0.0,0.0
166921252.0,0.060588219140986055,0.0326038202960615,0.0,0.0
166922908.0,0.0349632958938973,0.041653336145458415,0.0,0.0
166924564.0,0.02951035617121197,0.03871899231881175,0.0,0.0
166926224.0,-0.0036363404592410645,0.034970192065724465,0.0,0.0
166927880.0,-0.01629227251465185,0.011485482757025154,0.0,0.0
166929536.0,-0.03596500187331959,-0.021661834528887775,0.0,0.0
166931192.0,-0.06449869734700092,-0.022695527977018334,0.0,0.0
166932848.0,-0.04126184717840102,-0.010745962869424117,0.0,0.0
166934504.0,-0.04545696441717094,-0.02870336535148849,0.0,0.0
166936160.0,-0.0017433981711193914,-0.027736228693238614,0.0,0.0
166937820.0,0.03234772862642884,-0.015152925811605218,0.0,0.0
166939476.0,0.04250463446183186,0.01734333477078285,0.0,0.0
166941132.0,0.06959333888545098,0.04870709809382675,0.0,0.0
166942788.0,0.05576792178388783,0.037146197964461974,0.0,0.0
166944444.0,0.029504521284198944,0.022762559136012453,0.0,0.0
166946100.0,0.014485408323645626,-0.010580598680787989,0.0,0.0
166947756.0,-0.018169998591935688,0.017370770996969185,0.0,0.0
166949416.0,-0.019473685341063796,0.018323024878240106,0.0,0.0
166951072.0,-0.07783838546778504,-0.02324034451148428,0.0,0.0
166952728.0,-0.0460857537870893,-0.0448894167505293,0.0,0.0
166954384.0,-0.029080299094992053,-0.06279778574449117,0.0,0.0
166956048.0,-0.024932581254150606,-0.03875773823694695,0.0,0.0
166957696.0,-0.0023153543356018887,-0.02310593751993876,0.0,0.0
166959356.0,0.019928577977272804,0.020382258921384764,0.0,0.0
166961008.0,0.04013695986747527,0.04246179329818153,0.0,0.0
166962668.0,0.05834338784952072,0.030627389995255196,0.0,0.0
166964324.0,0.05473106146144624,0.006805828598421697,0.0,0.0
166965980.0,0.02948015655499108,0.03404936349884816,0.0,0.0
166967636.0,-0.005445638976539652,0.0334368389249885,0.0,0.0
166969292.0,-0.038098853066486575,-0.019627603789907834,0.0,0.0
166970948.0,-0.047608745558599716,-0.042636919293159645,0.0,0.0
166972604.0,-0.06417984878261876,-0.0308704349520668,0.0,0.0
166974264.0,-0.059895061682341946,-0.027033112215683566,0.0,0.0
166975920.0,-0.04411887529190342,-0.0042547730699986925,0.0,0.0
166977576.0,-0.008728319740496052,-0.01182179297058035,0.0,0.0
166979232.0,0.0352423790357764,-0.011438863394283879,0.0,0.0
166980888.0,0.06602792781242332,0.01962509797306267,0.0,0.0
166982544.0,0.08285611369920173,0.03065459567855561,0.0,0.0
166984200.0,0.0569136001960808,0.03888833686097826,0.0,0.0
166985856.0,0.03945654996315377,0.03612942324990769,0.0,0.0
166987516.0,0.00433432594551048,0.032629472932420786,0.0,0.0
166989172.0,-0.03921676355117507,-0.0006221751600697725,0.0,0.0
166990828.0,-0.019606852886273285,-0.003558827723987644,0.0,0.0
166992484.0,-0.06607734416667095,-0.033502831959585914,0.0,0.0
166994140.0,-0.06431272740690577,-0.04318253746442816,0.0,0.0
166995796.0,-0.038365766431900844,-0.04016728258806202,0.0,0.0
166997452.0,-0.0025776209652838694,-0.026280854216263486,0.0,0.0
166999112.0,0.010875298013591755,0.0073342012166638035,0.0,0.0
167000768.0,0.041107283900467875,0.019699478096121836,0.0,0.0
167002424.0,0.020128507079247456,0.029039399986623228,0.0,0.0
167004080.0,0.09642885152819909,0.03726644695797681,0.0,0.0
167005736.0,0.07461728589106796,0.03465290095917958,0.0,0.0
167007396.0,0.015938689253528336,0.011298920732961102,0.0,0.0
167009048.0,-0.020776866476664938,-0.01181984035336904,0.0,0.0
167010708.0,-0.0622113485094842,-0.012836743219331561,0.0,0.0
167012372.0,-0.0703414305265872,-0.021772957587528917,0.0,0.0
167014020.0,-0.05474240916073021,-0.040617650697788506,0.0,0.0
167015676.0,-0.02841168041333679,-0.008658084514914883,0.0,0.0
167017332.0,-0.013484863588871071,-0.015002495952107096,0.0,0.0
167018988.0,0.02907218764833038,-0.0042232683457715785,0.0,0.0
167020648.0,0.050285825371324804,0.007126956289924314,0.0,0.0
167022304.0,0.06766932848298303,0.03750705044104603,0.0,0.0
167023960.0,0.05314360419955811,0.03686562437495227,0.0,0.0
167025616.0,0.02705336463609134,0.023489989835256426,0.0,0.0
167027272.0,0.0022704402581299713,0.020172083641507882,0.0,0.0
167028928.0,-0.02016436255912166,0.008057984556330253,0.0,0.0
167030584.0,-0.060368702182348244,-0.013757502971401478,0.0,0.0
167032240.0,-0.06855390955203013,-0.044482721581474045,0.0,0.0
167033900.0,-0.06312072635561994,-0.033244546314041654,0.0,0.0
167035556.0,-0.046950874495932673,-0.039241101371714104,0.0,0.0
167037212.0,-0.0012700091239336978,-0.026249092203448655,0.0,0.0
167038868.0,0.022955569580708768,-0.012717393079993249,0.0,0.0
167040524.0,0.043069870401861665,0.009645025218320542,0.0,0.0
167042180.0,0.041003869139595035,0.030789590595513686,0.0,0.0
167043836.0,0.03712758080342635,0.02992153832586654,0.0,0.0
167045496.0,0.0534372325808645,0.027150475172270306,0.0,0.0
167047152.0,0.02009575030855499,0.014457536722942886,0.0,0.0
167048808.0,0.005286399376281166,0.02201399395743799,0.0,0.0
167050464.0,-0.026522218151492197,-0.009287184347625165,0.0,0.0
167052120.0,-0.06699799409536035,-0.021268443803792312,0.0,0.0
167053776.0,-0.05461099446172434,-0.030432597212510026,0.0,0.0
167055432.0,-0.0485811749931385,-0.03851843727017156,0.0,0.0
167057092.0,-0.0036661854915884234,-0.055779503521040545,0.0,0.0
167058748.0,-0.009293879742201411,-0.012312844166725102,0.0,0.0
167060404.0,0.041036076952040985,0.04270731115016742,0.0,0.0
167062060.0,0.06187252612883911,0.043815467125173806,0.0,0.0
167063716.0,0.05817927920315656,0.019971809121654194,0.0,0.0
167065372.0,0.07261075185155592,0.02602841708038969,0.0,0.0
167067028.0,0.007374616723276946,0.05423095425944593,0.0,0.0
167068696.0,-0.009160350943363087,0.031888396722208584,0.0,0.0
167070344.0,-0.029824066448456876,-0.02299238916113928,0.0,0.0
167072000.0,-0.058999634863558185,-0.04586234486614203,0.0,0.0
167073656.0,-0.0763154688831965,-0.033793029841640065,0.0,0.0
167075312.0,-0.07100550174547512,-0.019665418803683873,0.0,0.0
167076968.0,-0.024137109545986867,-0.016624046117935696,0.0,0.0
167078624.0,0.022253385611108737,-0.024854158425606992,0.0,0.0
167080284.0,0.0344257254702413,0.006642005725008927,0.0,0.0
167081940.0,0.07242292076524834,0.02887887998330958,0.0,0.0
167083596.0,0.06932460547292435,0.03828109946806389,0.0,0.0
167085252.0,0.06280654260405313,0.015682000269560913,0.0,0.0
167086908.0,0.026567328111485967,0.02223670131743744,0.0,0.0
167088564.0,-0.009085260722876546,0.020825321293179228,0.0,0.0
167090224.0,-0.041476320252910856,-0.011175981825395259,0.0,0.0
167091876.0,-0.0606586467878514,-0.02305026074177684,0.0,0.0
167093536.0,-0.06692577796509568,-0.0320444223774907,0.0,0.0
167095192.0,-0.061466499754187914,-0.02996989891073363,0.0,0.0
167096848.0,-0.04544317973732589,-0.03708590089676117,0.0,0.0
167098504.0,0.01008880524054875,-0.03438860999479287,0.0,0.0
167100160.0,0.04417869141691206,0.008949121085917913,0.0,0.0
167101816.0,0.04327069894525926,0.03204409598544927,0.0,0.0
167103476.0,0.039294616717739456,0.031238675087713247,0.0,0.0
167105132.0,0.05540025381266384,0.03835470644902509,0.0,0.0
167106788.0,0.04186373830806502,0.025543225691127488,0.0,0.0
167108444.0,0.026877715464929824,0.012091302110717501,0.0,0.0
167110100.0,-0.006890020982797736,-0.00020758820148226867,0.0,0.0
167111756.0,-0.05930901537464199,-0.021295805391446845,0.0,0.0
167113412.0,-0.07868891348618849,-0.03127712245331515,0.0,0.0
167115068.0,-0.07335110210246958,-0.029360499968082092,0.0,0.0
167116728.0,-0.03626909988871375,-0.036545558947287705,0.0,0.0
167118384.0,0.00033249930050510603,-0.02390311395015975,0.0,0.0
167120040.0,0.0035967182904876383,-0.010614013644903286,0.0,0.0
167121696.0,0.013566793353445591,0.011537266610610525,0.0,0.0
167123352.0,0.07324308870730625,0.032492527838655236,0.0,0.0
167125016.0,0.07202207730549388,0.04145417384369801,0.0,0.0
167126668.0,0.05543019932183347,0.048529846338220176,0.0,0.0
167128324.0,0.028948212364342432,0.01479897069228224,0.0,0.0
167129980.0,-0.01604050557462656,0.00043128452184924425,0.0,0.0
167131636.0,-0.03864584468741624,0.009099377159540433,0.0,0.0
167133292.0,-0.037202199185700426,-0.010939438447428841,0.0,0.0
167134948.0,-0.06372407316383295,-0.0317583823917835,0.0,0.0
167136608.0,-0.030375875237121628,-0.040773832931517755,0.0,0.0
167138264.0,-0.034640708652372114,-0.03791557851625496,0.0,0.0
167139920.0,0.008093120118968834,-0.02424593355241666,0.0,0.0
167141576.0,0.04121078389768346,-0.0008335314859588266,0.0,0.0
167143232.0,0.0704824030869774,0.021348602533760946,0.0,0.0
167144888.0,0.06677343253618703,0.04142362036750009,0.0,0.0
167146544.0,0.04043001625835167,0.06950224613945762,0.0,0.0
167148204.0,0.02442040733010166,0.035774120306388865,0.0,0.0
167149856.0,0.000781705866851147,0.0295189181538337,0.0,0.0
167151516.0,-0.05141613079286085,-0.013700752673741299,0.0,0.0
167153172.0,-0.07148648432088313,-0.026357455307584057,0.0,0.0
167154828.0,-0.05685903254952339,-0.03512438756694904,0.0,0.0
167156484.0,-0.04042524896063765,-0.04275221658926932,0.0,0.0
167158140.0,-0.025307936031187937,-0.05959102170824391,0.0,0.0
167159800.0,0.008330336375270024,-0.015743322215207967,0.0,0.0
167161456.0,0.04060805061808035,-0.030380130261466583,0.0,0.0
167163112.0,0.059858320344303204,0.021036768737898726,0.0,0.0
167164768.0,0.03620359578867598,0.053770980461436406,0.0,0.0
167166424.0,0.0308163469576938,0.06187767127502325,0.0,0.0
167168080.0,0.027558023336712395,0.037038283033498515,0.0,0.0
167169736.0,0.004784552110520521,0.011469292618739033,0.0,0.0
167171392.0,-0.0276956699897853,-0.011864152854271288,0.0,0.0
167173052.0,-0.06812627967973442,-0.032896389189958936,0.0,0.0
167174708.0,-0.06563366938065546,-0.05182861543307395,0.0,0.0
167176364.0,-0.04950230420947822,-0.05886794040598106,0.0,0.0
167178020.0,-0.0235952739652215,-0.014203365016997014,0.0,0.0
167179676.0,0.0008599334136298359,0.0010947496195355978,0.0,0.0
167181340.0,0.032983508070506026,0.03237305247106931,0.0,0.0
167182988.0,0.07290611406328275,0.05227452500530883,0.0,0.0
167184648.0,0.059937598336930964,0.03936095028291714,0.0,0.0
167186304.0,0.07337604807123495,0.03465624303243594,0.0,0.0
167187960.0,0.027981664220915133,0.021113757506970553,0.0,0.0
167189616.0,-0.018622180105502838,0.007994695634052452,0.0,0.0
167191272.0,-0.05114052988537667,-0.013905542541574898,0.0,0.0
167192928.0,-0.0494645336758854,-0.03462506514863962,0.0,0.0
167194584.0,-0.05486188598619866,-0.03337356631989731,0.0,0.0
167196240.0,-0.06041007795537181,-0.04025731045652088,0.0,0.0
167197896.0,-0.025472508216612226,-0.02725368948773012,0.0,0.0
167199556.0,-3.5601200633877256e-05,-0.01363053154664097,0.0,0.0
167201212.0,0.06225692453886634,0.01882230050724849,0.0,0.0
167202868.0,0.042260128646921115,0.020049048346450157,0.0,0.0
167204524.0,0.06665700543842713,0.038355041300799496,0.0,0.0
167206180.0,0.07285359386019911,0.03655062694962183,0.0,0.0
167207836.0,0.03685446337074123,0.033098673232545894,0.0,0.0
167209496.0,0.010297639923323883,0.019809116807080498,0.0,0.0
167211152.0,-0.03301926178004056,-0.0031697637838492033,0.0,0.0
167212808.0,-0.06394604937313914,-0.024952584296484743,0.0,0.0
167214464.0,-0.07097431581293948,-0.03466730555593775,0.0,0.0
167216120.0,-0.04521917136935012,-0.03242157296925639,0.0,0.0
167217776.0,-0.038831482946187275,-0.039301515469223704,0.0,0.0
167219432.0,0.0052382424770491195,-0.02638357390199006,0.0,0.0
167221092.0,0.03873307594220712,-0.002846437509762198,0.0,0.0
167222748.0,0.05826163411927497,-0.00047191585858025046,0.0,0.0
167224404.0,0.05477565728447746,0.04978426351729892,0.0,0.0
167226060.0,0.029532110213743284,0.049826735944569434,0.0,0.0
167227716.0,0.004602301058141449,0.03534615222801481,0.0,0.0
167229372.0,0.0019444111389034162,0.030861745993004692,0.0,0.0
167231032.0,-0.038469795956334436,-0.0023194077075149354,0.0,0.0
167232688.0,-0.038644792958834606,-0.025096964846883653,0.0,0.0
167234344.0,-0.055182511322765075,-0.04488821815321299,0.0,0.0
167236000.0,-0.061704479956473365,-0.042629491316993465,0.0,0.0
167237660.0,-0.036738053937416554,-0.0385895516832043,0.0,0.0
167239312.0,-0.021184650741337362,-0.024752897464671474,0.0,0.0
167240968.0,0.012121774113031836,-0.0012798378131882015,0.0,0.0
167242624.0,0.05402839267974765,0.01094792295863678,0.0,0.0
167244284.0,0.10293743300957706,0.0010631083618208748,0.0,0.0
167245940.0,0.04807487766839864,0.040077795295545275,0.0,0.0
167247596.0,0.02881050869754068,0.0399821155429848,0.0,0.0
167249252.0,0.024483769707384233,0.056375113966382326,0.0,0.0
167250908.0,-0.01810917607539898,0.012776723567508003,0.0,0.0
167252564.0,-0.030312715349057877,-0.012297036689462429,0.0,0.0
167254220.0,-0.0486828895022714,-0.033446941810535875,0.0,0.0
167255876.0,-0.04595474512085903,-0.032340208508484826,0.0,0.0
167257536.0,-0.05157328506565404,-0.03932998374553717,0.0,0.0
167259192.0,-0.03743735800477275,-0.006419364979776373,0.0,0.0
167260848.0,0.007204237651129866,0.01712033355732254,0.0,0.0
167262504.0,0.04057359987156055,-0.0023019235944964486,0.0,0.0
167264160.0,0.05992521848296057,-0.013842753614650361,0.0,0.0
167265816.0,0.07627359449451501,0.026364419508849206,0.0,0.0
167267472.0,0.0308803248310531,0.027610267334169443,0.0,0.0
167269132.0,0.024015701326549593,0.03523746957837245,0.0,0.0
167270788.0,0.0012364720917548118,0.012752545518294352,0.0,0.0
167272444.0,-0.0509249410276375,-0.01041882674375803,0.0,0.0
167274100.0,-0.06103622351589657,-0.04156655584040282,0.0,0.0
167275756.0,-0.06645297882341318,-0.0506288614334663,0.0,0.0
167277412.0,-0.06095971870698305,-0.03688787140783061,0.0,0.0
167279068.0,-0.024978950612873592,-0.032331273878816374,0.0,0.0
167280728.0,0.02050742407075773,-0.009011365452108209,0.0,0.0
167282384.0,0.042755529625915785,0.023898449196981857,0.0,0.0
167284040.0,0.06090986145954759,0.03470947208766875,0.0,0.0
167285696.0,0.05706186379321688,0.03255861165994096,0.0,0.0
167287352.0,0.05157997626185645,0.0694347591720519,0.0,0.0
167289008.0,0.03644440852046467,0.046504484122658354,0.0,0.0
167290664.0,0.001802210656903265,0.010255355797172546,0.0,0.0
167292320.0,-0.05147778610994196,-0.01393004777386557,0.0,0.0
167293980.0,-0.08163998506906156,-0.04485302979561224,0.0,0.0
167295636.0,-0.06700698431917133,-0.033599325495965476,0.0,0.0
167297292.0,-0.04965938566295522,-0.03956255281436207,0.0,0.0
167298948.0,-0.023628757074226958,-0.03653861351972575,0.0,0.0
167300604.0,0.010840587635436173,-0.01297798376642748,0.0,0.0
167302260.0,0.04296717577211887,0.00031049145034442666,0.0,0.0
167303916.0,0.04199152288492905,0.031478509989322334,0.0,0.0
167305576.0,0.04812447706543722,0.04145056575879475,0.0,0.0
167307232.0,0.05434524000579247,0.038617499859759714,0.0,0.0
167308888.0,0.05001403706990767,0.024886948941463642,0.0,0.0
167310544.0,0.005122965469389181,0.02141137395408413,0.0,0.0
167312200.0,-0.04937829786690251,-0.02082845145064419,0.0,0.0
167313860.0,-0.06983936475915663,-0.03275547510651688,0.0,0.0
167315512.0,-0.04539531795112972,-0.010880914475956627,0.0,0.0
167317172.0,-0.059109775122810175,-0.01793292171636499,0.0,0.0
167318828.0,-0.025024196507206792,-0.026953639413535718,0.0,0.0
167320484.0,0.030295683253843853,-0.015339676459058321,0.0,0.0
167322140.0,0.04254786093949474,-0.002913848911844653,0.0,0.0
167323796.0,0.059821249446648225,0.02846672196947401,0.0,0.0
167325452.0,0.05599194196209313,0.03872896837154173,0.0,0.0
167327108.0,0.030608029511900475,0.026166963394288503,0.0,0.0
167328776.0,0.03556875473530754,0.032681356240850314,0.0,0.0
167330424.0,0.012814032079238204,0.010326329535359235,0.0,0.0
167332080.0,-0.02038715584694118,0.0073850074736810005,0.0,0.0
167333736.0,-0.06154041873407375,-0.01354436218449906,0.0,0.0
167335392.0,-0.07970557470784508,-0.03420901285713092,0.0,0.0
167337048.0,-0.06416693702178412,-0.032990020260521453,0.0,0.0
167338708.0,-0.03699343529807238,-0.04991120910338025,0.0,0.0
167340364.0,0.018781589033888196,-0.026942107279935585,0.0,0.0
167342020.0,0.03211099821071414,-0.0024500984606347716,0.0,0.0
167343676.0,0.05042065519765966,0.019974691194558865,0.0,0.0
167345332.0,0.057530665358698226,0.030195200056018837,0.0,0.0
167346988.0,0.05299280639091113,0.038397477848513085,0.0,0.0
167348644.0,0.037815046508624314,0.025679909843469118,0.0,0.0
167350300.0,0.003045693933449699,0.012224136837097254,0.0,0.0
167351960.0,-0.020357660252332176,-0.010087055048810419,0.0,0.0
167353616.0,-0.040631772706342655,-0.031187227364148036,0.0,0.0
167355272.0,-0.058799583283629345,-0.030279392409753397,0.0,0.0
167356928.0,-0.07514272374005908,-0.017472541946979503,0.0,0.0
167358584.0,-0.06985076124453414,-0.024747396630102263,0.0,0.0
167360240.0,-0.01308791610792882,-0.02317486785487809,0.0,0.0
167361896.0,0.023198652404082667,-0.020947602158166614,0.0,0.0
167363556.0,0.04437656485379399,0.001138135948770712,0.0,0.0
167365212.0,0.062288686137424276,0.04302342014300741,0.0,0.0
167366868.0,0.06829479530058395,0.04292098790762033,0.0,0.0
167368524.0,0.05268881354821349,0.04904888009474454,0.0,0.0
167370180.0,-0.003457718028836791,0.03518599118306155,0.0,0.0
167371836.0,-0.00819971124817828,0.0007715919745328384,0.0,0.0
167373496.0,-0.027888516625577287,-0.012395147231942703,0.0,0.0
167375152.0,-0.05715054261324294,-0.032464590509648956,0.0,0.0
167376808.0,-0.05464057611694383,-0.031349027258775815,0.0,0.0
167378464.0,-0.05949702728175538,-0.028427214112905705,0.0,0.0
167380120.0,-0.024579375431229296,-0.005605801659616449,0.0,0.0
167381776.0,0.020775357024133807,0.01695264761054279,0.0,0.0
167383432.0,0.04298750081294274,0.00745716975990884,0.0,0.0
167385096.0,0.06111771868076956,-0.0040685685250417165,0.0,0.0
167386748.0,0.06724884360760586,0.03526028619656933,0.0,0.0
167388404.0,0.05174824892633773,0.03562645736382365,0.0,0.0
167390060.0,0.025695853001655476,0.022453031606129572,0.0,0.0
167391716.0,-0.008961489401718334,0.009246650443385443,0.0,0.0
167393372.0,-0.06127411617186506,-0.012774122401164514,0.0,0.0
167395028.0,-0.06046758212571382,-0.033606320941069204,0.0,0.0
167396688.0,-0.05495291167024767,-0.04245664992496724,0.0,0.0
167398344.0,-0.06951082927892774,-0.02943208104026476,0.0,0.0
167400000.0,0.005434932771393418,-0.015610982547017708,0.0,0.0
167401656.0,0.011690907406496346,-0.012962095253392742,0.0,0.0
167403312.0,0.051201763457067534,0.008442893175838854,0.0,0.0
167404968.0,0.08014958179048173,0.029609481748641926,0.0,0.0
167406624.0,0.03554142307935019,0.028849621362814156,0.0,0.0
167408284.0,0.038327960718204566,0.0361847680054415,0.0,0.0
167409936.0,0.015129232641065318,0.033588302082783676,0.0,0.0
167411596.0,0.0016797161764252016,0.020331672962296213,0.0,0.0
167413252.0,-0.0496819147612684,-0.012691274225159433,0.0,0.0
167414908.0,-0.07983308921714667,-0.034521124791761545,0.0,0.0
167416564.0,-0.055361716888634796,-0.0533789101114972,0.0,0.0
167418220.0,-0.03817673885909102,-0.05027200888023696,0.0,0.0
167419876.0,-0.03319418433911332,-0.04546790697020619,0.0,0.0
167421532.0,0.01024172215820544,-0.020943426170982018,0.0,0.0
167423192.0,0.04322919874872678,0.013148685456335405,0.0,0.0
167424848.0,0.062307443754483736,0.06503359381172436,0.0,0.0
167426504.0,0.0684168158671006,0.05385021212065246,0.0,0.0
167428160.0,0.05280914592919764,0.03799718867759784,0.0,0.0
167429816.0,0.016651632501158014,0.03315066958674082,0.0,0.0
167431476.0,-0.008101190632472617,0.009730922605751334,0.0,0.0
167433128.0,-0.029599837557570587,0.006747362342947502,0.0,0.0
167434788.0,-0.058870730400652035,-0.02412842069156671,0.0,0.0
167436444.0,-0.05620674502047182,-0.05473568330243085,0.0,0.0
167438100.0,-0.04090837928440688,-0.042564125440194396,0.0,0.0
167439756.0,-0.025849772232571806,-0.027637913942975045,0.0,0.0
167441420.0,-0.0021680180969734803,-0.013807142653356414,0.0,0.0
167443068.0,0.03015846140395628,-0.011319730398489797,0.0,0.0
167444724.0,0.06035358303268901,0.019922912440308305,0.0,0.0
167446384.0,0.04763932150633067,0.04094168817618148,0.0,0.0
167448040.0,0.04220749903338468,0.059148626056548054,0.0,0.0
167449696.0,0.04791996009781663,0.06546387412069173,0.0,0.0
167451352.0,0.014121285184812572,0.02014049777560239,0.0,0.0
167453008.0,-0.02019151122399036,-0.005751250895255317,0.0,0.0
167454664.0,-0.08146242689062065,-0.027563895695058398,0.0,0.0
167456324.0,-0.06964519088046721,-0.037046283114491096,0.0,0.0
167457980.0,-0.05231357246030964,-0.034565532501933574,0.0,0.0
167459636.0,-0.026045505281068727,-0.031231367021628806,0.0,0.0
167461292.0,-0.0013372837596385837,-0.028120469096455353,0.0,0.0
167462948.0,0.031006811715657605,-0.005309646064512738,0.0,0.0
167464604.0,0.05112716725402622,0.017221196154168245,0.0,0.0
167466264.0,0.06833655419961703,0.03769906429998007,0.0,0.0
167467916.0,0.06373510914675637,0.04614915664609868,0.0,0.0
167469576.0,0.04758481926879141,0.03275624085910672,0.0,0.0
167471232.0,0.001848659445582199,0.01860281676095557,0.0,0.0
167472888.0,-0.0324339742886113,0.005654755083633692,0.0,0.0
167474544.0,-0.052600353638712564,-0.016019498424851175,0.0,0.0
167476200.0,-0.07968129595273755,-0.0365284263823765,0.0,0.0
167477856.0,-0.054947264125256266,-0.06508667152414502,0.0,0.0
167479512.0,-0.04777594748950477,-0.09179911314973056,0.0,0.0
167481172.0,-0.022830693718234544,-0.0459413127125541,0.0,0.0
167482828.0,0.02146914155582487,0.0023206074709210866,0.0,0.0
167484484.0,0.06352390399046029,0.0464553256150538,0.0,0.0
167486140.0,0.06159168125043833,0.04624647094266806,0.0,0.0
167487796.0,0.05587452989129861,0.042065491637317196,0.0,0.0
167489452.0,0.05033127857875575,0.03790330925247366,0.0,0.0
167491108.0,0.005302570888544556,0.03411741500511625,0.0,0.0
167492768.0,-0.01922724418354858,0.010706117172387366,0.0,0.0
167494424.0,-0.04970447556351248,-0.02236445017806571,0.0,0.0
167496080.0,-0.06797402358700105,-0.043328000723582845,0.0,0.0
167497744.0,-0.06350062078628324,-0.021315200207555226,0.0,0.0
167499392.0,-0.03738295866344973,-0.01741568014243334,0.0,0.0
167501048.0,-0.02166790279268935,-0.015497312123754506,0.0,0.0
167502704.0,0.03169656348702397,0.006070099089063928,0.0,0.0
167504360.0,0.0636466747383643,0.017464857180197288,0.0,0.0
167506020.0,0.07079398402453727,0.026918548262188924,0.0,0.0
167507676.0,0.05506578329807936,0.025346711115969464,0.0,0.0
167509332.0,0.028694324735876693,0.0329240417723736,0.0,0.0
167510988.0,0.023738404239045573,0.030642837771936913,0.0,0.0
167512644.0,-0.018844084987183332,0.01767967401242329,0.0,0.0
167514300.0,-0.05098054136869516,-0.005078181387050466,0.0,0.0
167515960.0,-0.049284573719848665,-0.006669352048170835,0.0,0.0
167517616.0,-0.09469632499666611,-0.036212315723339134,0.0,0.0
167519272.0,-0.040260713361879155,-0.05561207403899921,0.0,0.0
167520928.0,-0.001738044112182043,-0.052352965623901536,0.0,0.0
167522584.0,0.02188542009038822,-0.017347878960388197,0.0,0.0
167524240.0,0.04204184406048801,-0.0026361120542398976,0.0,0.0
167525896.0,0.0700721562523508,0.028925197052193905,0.0,0.0
167527552.0,0.06628839028690972,0.029162447137074356,0.0,0.0
167529212.0,0.02998189622419531,0.03655917940238203,0.0,0.0
167530868.0,0.014015941098372295,0.04393455916004363,0.0,0.0
167532524.0,-0.008682429561803578,0.01064423301382299,0.0,0.0
167534180.0,-0.029943864260660497,-0.02330987731057639,0.0,0.0
167535836.0,-0.06916244560009817,-0.05426785828181648,0.0,0.0
167537492.0,-0.08646749781664044,-0.05216996932386858,0.0,0.0
167539148.0,-0.0702428777126299,-0.0372858620785051,0.0,0.0
167540808.0,-0.012460802909127707,-0.03259056483936147,0.0,0.0
167542464.0,0.013861056085004436,0.0007651627477079635,0.0,0.0
167544120.0,0.034982528346827635,0.013698313583250497,0.0,0.0
167545776.0,0.05373503329917326,0.05362944893595508,0.0,0.0
167547432.0,0.05058660574795763,0.042396600713469915,0.0,0.0
167549092.0,0.06575045275103886,0.03756995030922885,0.0,0.0
167550744.0,0.021197658233722105,0.02375425624501542,0.0,0.0
167552400.0,-0.004719882513873098,0.02037296071718539,0.0,0.0
167554068.0,-0.02662767175490809,-0.0017649223448625876,0.0,0.0
167555716.0,-0.04620288232865724,-0.03359848880941041,0.0,0.0
167557372.0,-0.05380639187071665,-0.043439645798374484,0.0,0.0
167559028.0,-0.049648132461137494,-0.05041578180552357,0.0,0.0
167560684.0,-0.06480555719277356,-0.03650621368367669,0.0,0.0
167562340.0,-0.020337225271272893,-0.021968793321175586,0.0,0.0
167564000.0,0.04549527487608071,0.04131676591035532,0.0,0.0
167565656.0,0.09732562515049414,0.05329395730925942,0.0,0.0
167567312.0,0.07323105041165029,0.03957544837732971,0.0,0.0
167568968.0,0.07447174414809728,0.034778992219498636,0.0,0.0
167570624.0,0.03788094961105046,0.041217201865536686,0.0,0.0
167572280.0,0.001178492637727388,-0.011912907434221033,0.0,0.0
167573936.0,-0.022230792827270564,-0.01562245560211706,0.0,0.0
167575596.0,-0.05233685716466546,-0.044550293933042856,0.0,0.0
167577252.0,-0.07033608581021338,-0.05314427292884436,0.0,0.0
167578908.0,-0.06562576866539463,-0.029134746474872207,0.0,0.0
167580564.0,-0.04929552094247031,-0.03435176191127792,0.0,0.0
167582220.0,0.006610798237412935,0.008270365271461716,0.0,0.0
167583876.0,0.03104739512223583,0.011362023843479572,0.0,0.0
167585532.0,0.0604524232808664,0.020617690969041765,0.0,0.0
167587192.0,0.06765815771986916,0.039595108823133725,0.0,0.0
167588848.0,0.05221743962458947,0.03773951663592053,0.0,0.0
167590504.0,0.026128205429801245,0.034175956841837926,0.0,0.0
167592160.0,0.0014286358635887597,0.020779400344602805,0.0,0.0
167593816.0,-0.040922902625095625,-0.002296435771162041,0.0,0.0
167595472.0,-0.07105147985282204,-0.024166581802173452,0.0,0.0
167597128.0,-0.07736841861656059,-0.033959902582770575,0.0,0.0
167598788.0,-0.030973785429806597,-0.04178491022057837,0.0,0.0
167600444.0,-0.014010627754311028,-0.04872851898812561,0.0,0.0
167602100.0,0.008777012934365884,-0.024967877068274694,0.0,0.0
167603756.0,0.02003796943225558,-0.0005823103593467999,0.0,0.0
167605412.0,0.019248038268162654,0.021664798576800766,0.0,0.0
167607068.0,0.07744462101925682,0.041717206509144254,0.0,0.0
167608724.0,0.03571229757512842,0.029767374637232186,0.0,0.0
167610388.0,0.028742281683390762,0.03601282605141034,0.0,0.0
167612040.0,0.01552817490163091,0.023333762334053758,0.0,0.0
167613696.0,-0.007058630449871986,-0.009907392010570332,0.0,0.0
167615352.0,-0.03845616619102502,-0.022007430620635173,0.0,0.0
167617008.0,-0.05782088945053086,-0.03111576533968214,0.0,0.0
167618664.0,-0.06435983449334429,-0.029135096583826677,0.0,0.0
167620320.0,-0.04915595444279424,-0.02633467770325358,0.0,0.0
167621980.0,-0.03336356933839098,-0.023712519010714295,0.0,0.0
167623636.0,0.011060466561458798,-0.011342398017417491,0.0,0.0
167625292.0,0.04406318780191456,0.02079172869354566,0.0,0.0
167626948.0,0.07306774581138782,0.04181254451511267,0.0,0.0
167628604.0,0.06910205890921493,0.04994128893269072,0.0,0.0
167630260.0,0.04252596178618605,0.036178159926338535,0.0,0.0
167631916.0,0.056306776484361255,0.051683443922392956,0.0,0.0
167633576.0,-0.01752056007640459,0.028427409529023624,0.0,0.0
167635232.0,-0.0425881699599954,-0.016224100423997995,0.0,0.0
167636888.0,-0.06101131955311671,-0.038782567281607845,0.0,0.0
167638544.0,-0.047178384256714855,-0.047322398243449734,0.0,0.0
167640200.0,-0.061687365496937194,-0.06383196718810333,0.0,0.0
167641856.0,-0.027441310913832284,-0.03957295134619114,0.0,0.0
167643516.0,-0.01188944801910339,-0.013828074299259568,0.0,0.0
167645168.0,0.040580269963138106,0.009733491321898205,0.0,0.0
167646828.0,0.07165032028485799,0.020978018008824744,0.0,0.0
167648484.0,0.05799809598817214,0.050102003789859025,0.0,0.0
167650140.0,0.051549567162537765,0.04821398216906366,0.0,0.0
167651796.0,0.026329738523602843,0.03370480182797635,0.0,0.0
167653452.0,-0.028309722521026696,0.009365543432755502,0.0,0.0
167655108.0,-0.030679398988148112,-0.03366788873175839,0.0,0.0
167656764.0,-0.04813152396125344,-0.054510787640701844,0.0,0.0
167658424.0,-0.05537037805232579,-0.001480677654847563,0.0,0.0
167660080.0,-0.051038540895809566,0.0034252932328178764,0.0,0.0
167661736.0,-0.026055206871101383,-0.03644144577824926,0.0,0.0
167663392.0,0.01853826180952091,-0.026749722169202295,0.0,0.0
167665048.0,0.04088323042792117,0.006530007950840138,0.0,0.0
167666712.0,0.059214786865059744,0.01893748294606721,0.0,0.0
167668364.0,0.03553529612654854,0.00834978223049444,0.0,0.0
167670020.0,0.04020596530869317,-0.003354591234652748,0.0,0.0
167671676.0,0.027007788657305503,0.04589392836460332,0.0,0.0
167673332.0,-0.006610748220478021,0.036195841575722636,0.0,0.0
167674988.0,-0.03904144919963779,0.012065388022906066,0.0,0.0
167676644.0,-0.058446481859793065,-0.0211922377189067,0.0,0.0
167678300.0,-0.07493275143182282,-0.022278122640969383,0.0,0.0
167679956.0,-0.06967256806443974,-0.03037082124626664,0.0,0.0
167681616.0,-0.012928620435575685,-0.018365790208577124,0.0,0.0
167683272.0,0.013341910690222187,-0.0156324162964154,0.0,0.0
167684928.0,0.02450548652942286,0.0060205048223548364,0.0,0.0
167686584.0,0.06330471456730344,0.01742742228902995,0.0,0.0
167688240.0,0.08109922077965537,0.0268855768550237,0.0,0.0
167689896.0,0.06540179646859694,0.035317108849011576,0.0,0.0
167691552.0,0.058102866598429656,0.0028974069320594387,0.0,0.0
167693212.0,0.012216704916252518,0.029718867135648967,0.0,0.0
167694868.0,-0.043012553077605584,0.009458100511759637,0.0,0.0
167696524.0,-0.06411205652006831,-0.02321659753044593,0.0,0.0
167698180.0,-0.050240926743078694,0.015932173423494,0.0,0.0
167699836.0,-0.06447084165627709,-0.011978332798770416,0.0,0.0
167701492.0,-0.06994915824939944,-0.02341222840687976,0.0,0.0
167703152.0,-0.004146782500337913,-0.03233417845498929,0.0,0.0
167704808.0,0.04214864174210974,-0.04022707789837636,0.0,0.0
167706464.0,0.07252185216714585,-0.007317001837426755,0.0,0.0
167708120.0,0.06872847441035256,0.026303435173432803,0.0,0.0
167709776.0,0.042201507715303746,0.0269619653387978,0.0,0.0
167711432.0,0.016015945018378268,0.02459465617319112,0.0,0.0
167713088.0,0.0022178093239997917,0.022168079292698754,0.0,0.0
167714748.0,-0.00922362572765198,0.01995456023711041,0.0,0.0
167716404.0,-0.019423228566818784,-0.0020405668992296336,0.0,0.0
167718060.0,-0.06859310225132556,-0.043836477320572415,0.0,0.0
167719716.0,-0.056845011680314715,-0.043652826299645155,0.0,0.0
167721372.0,-0.04067163247768859,-0.029707543340787956,0.0,0.0
167723036.0,-0.01555558142646083,-0.01577878897381705,0.0,0.0
167724684.0,-0.0018951345034756797,-0.013105110073149543,0.0,0.0
167726344.0,0.059504867824908075,-0.001685019065509988,0.0,0.0
167727996.0,0.06967542993022657,0.02949444084107518,0.0,0.0
167729656.0,0.0643199918259837,0.029646092556971645,0.0,0.0
167731312.0,0.03804920313225478,0.04699159288127375,0.0,0.0
167732968.0,0.012260403867920799,0.034323444551147435,0.0,0.0
167734624.0,-0.02116402441398498,0.010094201191833362,0.0,0.0
167736280.0,-0.042267460762095574,-0.012994908817771045,0.0,0.0
167737936.0,-0.0703626985648375,-0.03390338692503548,0.0,0.0
167739596.0,-0.05655862709625003,-0.03273384513143495,0.0,0.0
167741252.0,-0.050225984225414654,-0.03968254030818517,0.0,0.0
167742908.0,-0.015135707786751017,-0.026736494246350904,0.0,0.0
167744564.0,0.009384630793536873,-0.013165065618615378,0.0,0.0
167746220.0,0.04074684449434504,0.009241218863555637,0.0,0.0
167747876.0,0.05990222772292899,0.040426074769231025,0.0,0.0
167749532.0,0.0662350117184402,0.059594365071511585,0.0,0.0
167751188.0,0.050843811223369784,0.03595601834228363,0.0,0.0
167752848.0,0.024882660168712437,0.02059252548584077,0.0,0.0
167754504.0,-0.009693282841391416,0.007356483835038084,0.0,0.0
167756160.0,-0.04193272225657497,-0.004496843458686449,0.0,0.0
167757816.0,-0.06106032680084747,-0.025158927003837036,0.0,0.0
167759472.0,-0.0572863817977597,-0.03475421109256094,0.0,0.0
167761128.0,-0.051790952385679455,-0.0524899076622105,0.0,0.0
167762788.0,-0.03663517802388221,-0.04936202866388058,0.0,0.0
167764444.0,-0.001973992309174471,-0.024637936974282768,0.0,0.0
167766100.0,0.07132317371298175,-0.0001953543945386305,0.0,0.0
167767756.0,0.07150083302080347,0.05202205993314625,0.0,0.0
167769412.0,0.0750817473866317,0.05203964182865473,1.0,0.0
167771068.0,0.04864667241476167,0.047357656434675544,1.0,0.0
167772724.0,0.001889315149965382,0.042674088670096054,1.0,0.0
167774384.0,-0.04248888536736374,0.008411899590971841,1.0,0.0
167776040.0,-0.04265892373086063,-0.015428768389333962,1.0,0.0
167777696.0,-0.07883492404779335,-0.026185839352520862,1.0,0.0
167779356.0,-0.054995620912019295,-0.044797250197483075,1.0,0.0
167781008.0,-0.01790047774771562,-0.07244052465574881,1.0,0.0
167782664.0,-0.002950871865640135,-0.05840877213798329,1.0,0.0
167784320.0,0.008660171131659955,-0.021889124918961354,1.0,0.0
167785980.0,0.01892574959956984,0.013367664573457713,1.0,0.0
167787632.0,0.04814633419771135,0.02533768581616083,1.0,0.0
167789292.0,0.05644301673375347,0.04413459600455588,1.0,0.0
167790948.0,0.04210984665595718,0.051854204281098,1.0,0.0
167792604.0,0.03702997514992278,0.027882090640686266,1.0,0.0
167794260.0,0.03324008895088209,0.013215212255387446,1.0,0.0
167795916.0,-0.0200926088126104,0.0007058240977256807,1.0,0.0
167797576.0,-0.08308421681818524,-0.020483545005255212,1.0,0.0
167799232.0,-0.07127588202505486,-0.0005470691740505219,1.0,0.0
167800888.0,-0.0737983025114125,-0.018703550123581533,1.0,0.0
167802544.0,-0.027383473129162107,-0.018654313897912438,1.0,0.0
167804200.0,0.019258374096872977,-0.02697099438679522,1.0,0.0
167805856.0,0.04172288667849189,-0.005292106135984802,1.0,0.0
167807512.0,0.05998963300977559,0.017135283358828475,1.0,0.0
167809168.0,0.06623457320871019,0.02761157291106597,1.0,0.0
167810824.0,0.06083550623783436,0.04606939740877141,1.0,0.0
167812484.0,0.03487439464904135,0.03358435584678002,1.0,0.0
167814140.0,-0.000600800912358629,0.019438110079985478,1.0,0.0
167815796.0,-0.043739496430776334,0.006415518053773568,1.0,0.0
167817452.0,-0.06368542434866122,-0.015333911853421716,1.0,0.0
167819108.0,-0.05974886966989305,-0.035911308478262474,1.0,0.0
167820764.0,-0.034017181478511266,-0.04453125641145452,1.0,0.0
167822424.0,-0.028639783208220894,-0.031299238648409194,1.0,0.0
167824080.0,0.004421763124845693,-0.007291425571380558,1.0,0.0
167825736.0,0.036999343613585006,0.005525505906980818,1.0,0.0
167827392.0,0.036601384932347755,0.02618173420840507,1.0,0.0
167829048.0,0.04327144400712169,0.035684438676774524,1.0,0.0
167830704.0,0.04997731936321551,0.04332808259801693,1.0,0.0
167832364.0,0.07608288940257286,0.05011648311710893,1.0,0.0
167834020.0,0.021584930659888577,0.036216955683283994,1.0,0.0
167835676.0,0.004737470613654175,0.001706472202742483,1.0,0.0
167837332.0,-0.04720517314573637,-0.02155305380875194,1.0,0.0
167838988.0,-0.037631545500964106,-0.051706636306999336,1.0,0.0
167840644.0,-0.06338307991784897,-0.04976686146421053,1.0,0.0
167842300.0,-0.0599962408227605,-0.04511326419657888,1.0,0.0
167843956.0,-0.1042917636301558,-0.030634246664801065,1.0,0.0
167845612.0,0.021107898043891515,0.003425947112892171,1.0,0.0
167847272.0,0.060494156770606114,0.016183029312721423,1.0,0.0
167848928.0,0.03859444594665758,0.025874694072567952,1.0,0.0
167850584.0,0.05314997183730132,0.034418221434424155,1.0,0.0
167852240.0,0.08967647170209873,0.022089498967888494,1.0,0.0
167853896.0,0.004892974236748431,0.018991859038789187,1.0,0.0
167855556.0,-0.053177908216443866,0.007003804131680358,1.0,0.0
167857208.0,-0.05361827589775066,-0.014705463181808397,1.0,0.0
167858868.0,-0.0488322641582673,-0.03533580555365849,1.0,0.0
167860524.0,-0.02400661932747031,-0.03401231386730085,1.0,0.0
167862180.0,-0.039611715553225686,-0.030832091367469883,1.0,0.0
167863836.0,-0.007451119813759039,-0.01777098311940769,1.0,0.0
167865492.0,0.01611393458603696,-0.014996094896337107,1.0,0.0
167867148.0,0.056784535369269584,-0.013396706415591552,1.0,0.0
167868804.0,0.0753342812565274,0.027952942125077086,1.0,0.0
167870464.0,0.020223673073293133,0.04915864570247749,1.0,0.0
167872120.0,0.06344358776020624,0.08664288091122509,1.0,0.0
167873776.0,0.0216234571836127,0.07221860279800268,1.0,0.0
167875432.0,-0.03408646571480985,0.014420743515991291,1.0,0.0
167877088.0,-0.05603257686132987,-0.06207893073582725,1.0,0.0
167878748.0,-0.07296479494700381,-0.07337679765227045,1.0,0.0
167880404.0,-0.057921863029482414,-0.02778969388604201,1.0,0.0
167882060.0,-0.011355031484253207,-0.011185782097343356,0.0,0.0
167883716.0,-0.006142063811598653,0.0013152903524044058,0.0,0.0
167885372.0,0.004879889021985273,0.01232201074116076,0.0,0.0
167887028.0,0.03543267476502972,0.012203634609447775,0.0,0.0
167888684.0,0.07499348475305218,0.02109465364274274,0.0,0.0
167890340.0,0.0718045440241995,0.03999632652789074,0.0,0.0
167892000.0,0.0650551303964231,0.028097807700049007,0.0,0.0
167893656.0,0.008592721434244013,0.024498138312540545,0.0,0.0
167895312.0,0.0027377596985676393,0.0019693356195321526,0.0,0.0
167896968.0,-0.07803558523051432,-0.020235496828600475,0.0,0.0
167898624.0,-0.06828198360338485,-0.010412737034351548,0.0,0.0
167900280.0,-0.06125878093264139,-0.028591542319775804,0.0,0.0
167901936.0,-0.015113402408338465,-0.03765439598668814,0.0,0.0
167903596.0,0.00039988787560437723,-0.02508115717790775,0.0,0.0
167905252.0,0.011760094092355408,-0.011692261539110365,0.0,0.0
167906908.0,-0.018275895816449558,0.0005650426069053124,0.0,0.0
167908564.0,0.05066569571523959,0.01161734614542354,0.0,0.0
167910220.0,0.06231052633871892,0.03156649231080263,0.0,0.0
167911876.0,0.04775061372434509,0.030520931157714513,0.0,0.0
167913532.0,0.022142666353862084,0.02767994684974341,0.0,0.0
167915192.0,-0.0021548888813266998,0.014933063045550813,0.0,0.0
167916848.0,-0.024147728853178837,-0.01755813217093121,0.0,0.0
167918504.0,-0.07395378885385773,-0.03890210784502681,0.0,0.0
167920160.0,-0.06178049325706936,-0.03732187594964471,0.0,0.0
167921816.0,-0.05512465226022501,-0.04382068624359343,0.0,0.0
167923472.0,-0.03956440786708763,-0.030461717408123132,0.0,0.0
167925128.0,-0.014603189163665101,-0.016517855646197448,0.0,0.0
167926796.0,0.028957607544367672,0.00622369892053193,0.0,0.0
167928440.0,0.06027189456910208,0.017710305928684583,0.0,0.0
167930100.0,0.0676657098901107,0.0371501730258441,0.0,0.0
167931756.0,0.05224123937888582,0.03555624549226135,0.0,0.0
167933412.0,0.03615132548877245,0.03221272991993254,0.0,0.0
167935068.0,-0.028550386055322164,0.019012667825631862,0.0,0.0
167936724.0,-0.03180400534931282,-0.0038864778671654793,0.0,0.0
167938384.0,-0.04923447060432814,-0.02559761797146894,0.0,0.0
167940040.0,-0.05637211012289454,-0.035247834963428024,0.0,0.0
167941696.0,-0.051941007768506714,-0.04294404934599639,0.0,0.0
167943352.0,-0.05686751785744962,-0.03977174419929014,0.0,0.0
167945008.0,-0.012192827158278323,-0.025906779758144212,0.0,0.0
167946664.0,0.022925249448895554,-0.0023273227802120774,0.0,0.0
167948320.0,0.07402260389313606,0.040004287398023176,0.0,0.0
167949980.0,0.06195933144273433,0.050213746448243404,0.0,0.0
167951632.0,0.05529729709235322,0.04661336058241904,0.0,0.0
167953292.0,0.089720957262506,0.032094123402079976,0.0,0.0
167954948.0,0.05474420052419818,0.017898920949658285,0.0,0.0
167956604.0,-0.05333068562942737,-0.014989550156527209,0.0,0.0
167958260.0,-0.07825766367660747,-0.02660045304199191,0.0,0.0
167959916.0,-0.09345790196995958,-0.03525139352790617,0.0,0.0
167961572.0,-0.06641471223906775,-0.032857352754131444,0.0,0.0
167963228.0,-0.05800350106176798,-0.02968472733661932,0.0,0.0
167964888.0,-0.002026176960254721,-0.016727565588744078,0.0,0.0
167966544.0,0.0631941381353061,-0.014055940128448338,0.0,0.0
167968200.0,0.0533764940617279,0.02744954077453579,0.0,0.0
167969856.0,0.06768902162955659,0.03871457538610012,0.0,0.0
167971512.0,0.0528851371639954,0.03624411671639133,0.0,0.0
167973168.0,0.036793125217334736,0.022759804931640044,0.0,0.0
167974828.0,-0.007966537127425417,0.029497834427167097,0.0,0.0
167976484.0,-0.03127791839698043,-0.0025505480166822126,0.0,0.0
167978140.0,-0.03056093005551328,-0.02520535311512441,0.0,0.0
167979796.0,-0.03774591739978617,-0.03497580379362528,0.0,0.0
167981452.0,-0.05499543369479169,-0.04270732201326523,0.0,0.0
167983116.0,-0.041598301128806955,-0.03955949967183952,0.0,0.0
167984764.0,-0.03664871209627797,-0.0057158406906467835,0.0,0.0
167986424.0,-0.0029048649946898947,-0.012155485720177816,0.0,0.0
167988080.0,0.040393519093979105,-0.011641060058017332,0.0,0.0
167989736.0,0.06065495694350006,-0.0005470663432041705,0.0,0.0
167991392.0,0.057019540225042506,0.050500629062012845,0.0,0.0
167993048.0,0.0415605941001275,0.060549865032908046,0.0,0.0
167994704.0,0.026428835479873108,0.04600480841732063,0.0,0.0
167996360.0,-0.007311617989136095,0.010555320564357202,0.0,0.0
167998020.0,-0.039690213182328654,-0.01358511219319995,0.0,0.0
167999676.0,-0.06903216756330754,-0.04453509104399153,0.0,0.0
168001332.0,-0.03546004837689341,-0.013312430946603535,0.0,0.0
168002988.0,-0.03924715329619233,-0.04930427275264202,0.0,0.0
168004644.0,-0.016055748942274763,-0.028106153967446,0.0,0.0
168006300.0,0.017476494854384256,-0.033668769419712766,0.0,0.0
168007956.0,0.05892151225918728,0.01886078443735567,0.0,0.0
168009612.0,0.07734862772228986,0.061890973685135506,0.0,0.0
168011272.0,0.03204569161896868,0.03019350308577463,0.0,0.0
168012928.0,0.02508431512396146,0.014623315454108455,0.0,0.0
168014584.0,0.0022002028782565504,0.02190590017639158,0.0,0.0
168016240.0,-5.738548289998109e-05,0.030589801785524093,0.0,0.0
168017896.0,-0.040255403741948755,-0.0013817292303556958,0.0,0.0
168019552.0,-0.05025023904848606,-0.024134811391050025,0.0,0.0
168021212.0,-0.036627252711715214,-0.04401045576032199,0.0,0.0
168022868.0,-0.052104731197348056,-0.0418383227351292,0.0,0.0
168024524.0,-0.028808278453294825,-0.027877381716699078,0.0,0.0
168026180.0,-0.004118852645534067,-0.024111932670532337,0.0,0.0
168027836.0,0.018473892415268152,0.008397031683970015,0.0,0.0
168029492.0,0.04884458915336111,0.030567105624318497,1.0,0.0
168031148.0,0.08718193883598811,0.019811372772757782,1.0,0.0
168032808.0,0.06278592581219072,0.03706033326657026,1.0,0.0
168034464.0,0.03493955131694383,0.03527730971702319,1.0,0.0
168036120.0,-0.010711182006149922,0.011941879723027321,1.0,0.0
168037776.0,-0.053855741624674866,-0.0012330781515030615,1.0,0.0
168039440.0,-0.07289173524412308,-0.012307847326573815,1.0,0.0
168041088.0,-0.0680447184979012,-0.04219687029294252,1.0,0.0
168042744.0,-0.07148446232592956,-0.06108916403354974,1.0,0.0
168044400.0,-0.03536043766111902,-0.027291445707180933,1.0,0.0
168046060.0,0.03107316394821635,-0.03179342094416487,1.0,0.0
168047716.0,0.08425560333771308,-0.009337190830514035,1.0,0.0
168049372.0,0.05145901858237247,0.023524217054457393,1.0,0.0
168051028.0,-0.006123985718021706,0.04436456422920536,1.0,0.0
168052684.0,0.029244702609567047,0.07224738469430249,1.0,0.0
168054340.0,-0.030204138675809865,0.038254573913676856,1.0,0.0
168056000.0,-0.01283616191067374,0.011752309291183942,1.0,0.0
168057656.0,0.00988221057015256,-0.001690602361042996,1.0,0.0
168059312.0,-0.018962534857887375,-0.02274831019724728,1.0,0.0
168060968.0,-0.049851933809200534,-0.04259615598475682,1.0,0.0
168062624.0,-0.04814530567199067,-0.0405488080670057,1.0,0.0
168064280.0,-0.033658631629162626,-0.026715154028375314,1.0,0.0
168065936.0,0.010674445881314264,0.006934238697656338,1.0,0.0
168067592.0,0.02370372272794231,-0.0006613974397932952,1.0,0.0
168069252.0,0.06274302259862005,0.018714521077418205,1.0,0.0
168070908.0,0.08060968755310638,0.028774046847002445,1.0,0.0
168072564.0,0.06496281551923455,0.02708973995003253,1.0,0.0
168074220.0,0.04770794363945157,0.03450007573380742,1.0,0.0
168075876.0,0.021861290242723867,0.022061999138302226,1.0,0.0
168077532.0,-0.03243242468482791,-0.0010430076777438544,1.0,0.0
168079188.0,-0.06439994080667477,-0.013028587600192761,1.0,0.0
168080848.0,-0.07148102258504083,-0.022934716909188427,1.0,0.0
168082504.0,-0.03568502791243952,-0.011762144025177898,1.0,0.0
168084160.0,-0.04925173587978301,-0.039698019503351514,1.0,0.0
168085816.0,-0.006040083367665724,-0.05863942654108209,1.0,0.0
168087472.0,0.018392572861519296,-0.005066604785779314,1.0,0.0
168089128.0,0.058936180364601826,0.01021094360291978,1.0,0.0
168090788.0,0.057280848807069636,0.03066693803363935,1.0,0.0
168092444.0,0.03197659257425604,0.05974795310937316,1.0,0.0
168094096.0,0.03682131618161749,0.04698792868634392,1.0,0.0
168095764.0,0.01394342284993559,0.02161061290650488,1.0,0.0
168097412.0,-0.00937049560641283,-0.032618300675266644,1.0,0.0
168099068.0,-0.05062540366290249,-0.05456325583685379,1.0,0.0
168100724.0,-0.07978205905832533,-0.021627608776077518,1.0,0.0
168102380.0,-0.05522577272866809,-0.026716915750760108,1.0,0.0
168104036.0,-0.048045387413420515,-0.02477043096091825,1.0,0.0
168105696.0,0.006924932132159617,-0.022365908543348703,1.0,0.0
168107352.0,0.0112490169993686,-0.010136569756860943,1.0,0.0
168109008.0,0.030625773107474805,0.011876362012038167,1.0,0.0
168110664.0,0.04961336157752936,0.02278865329015281,1.0,0.0
168112320.0,0.07685704199785605,0.04171978070907051,1.0,0.0
168113980.0,0.04239183945588126,0.04966880191295335,1.0,0.0
168115632.0,-0.014525294323926359,0.02591402164913985,1.0,0.0
168117292.0,-0.03834055987495283,0.011443829476972337,1.0,0.0
168118948.0,-0.06703328338580401,0.009111567528552026,1.0,0.0
168120604.0,-0.05358263299705257,-0.011918377124376623,1.0,0.0
168122260.0,-0.0075496374923364595,-0.05273841820194631,1.0,0.0
168123916.0,-0.022727200522598884,-0.05166576426075184,1.0,0.0
168125572.0,-0.0020477331482897407,-0.03691930662257667,1.0,0.0
168127228.0,0.029997714898746433,-0.00226938783910787,1.0,0.0
168128884.0,0.05018201088208853,0.011053349756926305,1.0,0.0
168130544.0,0.007482216541203625,0.031257594662445445,1.0,0.0
168132200.0,0.03296583556181907,0.05026279318432037,1.0,0.0
168133856.0,0.04229243607310392,0.04744960966469631,1.0,0.0
168135512.0,0.07932551087254533,0.03292595827811202,1.0,0.0
168137168.0,0.045519191625965974,0.008655493408288212,1.0,0.0
168138824.0,-0.07162010435256766,-0.004307842836739027,1.0,0.0
168140484.0,-0.06571683159889892,-0.04508683724349122,1.0,0.0
168142140.0,-0.04927102220716726,-0.034699131388179025,1.0,0.0
168143796.0,-0.06335650736327261,-0.04064131603626879,1.0,0.0
168145452.0,-0.018922115364620733,-0.02751839421132984,1.0,0.0
168147108.0,-0.013220029701928471,-0.023860675768067354,1.0,0.0
168148764.0,0.048482960680882856,0.028615979710955745,1.0,0.0
168150420.0,-0.00032723664594302027,0.030763440530076694,1.0,0.0
168152088.0,0.06530929689278094,0.03818800235609636,0.0,0.0
168153736.0,0.07533874819091467,0.03541929270838889,0.0,0.0
168155392.0,0.03946091147056438,0.03198237249634192,0.0,0.0
168157048.0,0.012680424133380927,0.018794636152582943,0.0,0.0
168158704.0,-0.0208710578989693,-0.004083777372088968,0.0,0.0
168160360.0,-0.06201229607097188,-0.03577529462582314,0.0,0.0
168162016.0,-0.060133900860062935,-0.03540775466233457,0.0,0.0
168163672.0,-0.08455279421367945,-0.05218797814600764,0.0,0.0
168165328.0,-0.02914074313627151,-0.03900128022640094,0.0,0.0
168166988.0,-0.0015309916570449048,-0.024304362193255706,0.0,0.0
168168644.0,0.03109167522522294,-0.010794246972879052,0.0,0.0
168170300.0,0.05122946447435585,0.041393145624515106,0.0,0.0
168171956.0,0.05843121370408919,0.05236462785206911,0.0,0.0
168173616.0,0.033820561901395464,0.04863924474586388,0.0,0.0
168175272.0,0.00856175266803255,0.023926428239179367,0.0,0.0
168176928.0,0.015517902096901843,0.019548896212052184,0.0,0.0
168178584.0,-0.04525265564322052,0.007395517670519219,0.0,0.0
168180240.0,-0.046649266831937146,-0.02436388298856093,0.0,0.0
168181896.0,-0.05257652782405014,-0.03502947957890766,0.0,0.0
168183552.0,-0.048378093809174655,-0.032836730109938886,0.0,0.0
168185208.0,-0.033646206305009,-0.03968407694783492,0.0,0.0
168186864.0,-0.009292177862184423,-0.026728771237942695,0.0,0.0
168188524.0,0.03373598070526014,-0.01315720431263414,0.0,0.0
168190180.0,0.05457227671285958,0.009248385098781842,0.0,0.0
168191836.0,0.07153603844939184,0.030432533486914368,0.0,0.0
168193492.0,0.06662453354522994,0.029600178828023432,0.0,0.0
168195148.0,0.04018629008477956,0.04686125081420057,0.0,0.0
168196808.0,-0.00580991793428716,0.034197234719684146,0.0,0.0
168198464.0,0.0005733159580883647,0.039979722146399846,0.0,0.0
168200120.0,-0.05890379142783262,0.006901971021628268,0.0,0.0
168201776.0,-0.058955389864058294,-0.046696203971546016,0.0,0.0
168203432.0,-0.043654048635548816,-0.07731738136348801,0.0,0.0
168205088.0,-0.03834806354778698,-0.043114723006053415,0.0,0.0
168206744.0,-0.01441919917058815,-0.02615615868333495,0.0,0.0
168208412.0,0.019032126548714386,-0.02227583361279526,0.0,0.0
168210056.0,0.04032985447406561,7.822066870773105e-05,0.0,0.0
168211716.0,0.04861696308468018,0.0320830456938576,0.0,0.0
168213372.0,0.054987276182016556,0.05207600583367391,0.0,0.0
168215028.0,0.04061174950439136,0.0591885317212307,0.0,0.0
168216684.0,0.025662894648010436,0.044501691196198345,0.0,0.0
168218340.0,0.0020078371926163484,-0.0008252766587095789,0.0,0.0
168219996.0,-0.060301823325702324,-0.03483042886637198,0.0,0.0
168221652.0,-0.10048252867303666,-0.034756153967089254,0.0,0.0
168223312.0,-0.08505536457372743,-0.05162141536911464,0.0,0.0
168224968.0,-0.04601193699315129,-0.04849336151207547,0.0,0.0
168226624.0,-0.0183569541815215,-0.02384743412885402,0.0,0.0
168228280.0,0.015784120147866666,-0.009483031592763811,0.0,0.0
168229936.0,0.04743624602420304,0.0226632374788268,0.0,0.0
168231592.0,0.0760156752108996,0.04351671032217896,0.0,0.0
168233252.0,0.06174641306871562,0.041477018949085113,0.0,0.0
168234908.0,0.07490500229973353,0.02756051502008787,0.0,0.0
168236564.0,0.0293478251235531,0.05382758331466737,0.0,0.0
168238220.0,-0.0073936250834234895,-0.008652863037139406,0.0,0.0
168239876.0,-0.05003492934454384,-0.013497345535462313,0.0,0.0
168241532.0,-0.06936950308703686,-0.032718587862118634,0.0,0.0
168243188.0,-0.06486635944602792,-0.03150382676392361,0.0,0.0
168244844.0,-0.04862310416819175,-0.03855915385633464,0.0,0.0
168246504.0,-0.022785131818050378,-0.03572380944758549,0.0,0.0
168248160.0,0.001590947557084037,-0.012253485600508554,0.0,0.0
168249816.0,0.033641609420710275,0.0009616572497707294,0.0,0.0
168251472.0,0.07349842414057385,0.02206447095381309,0.0,0.0
168253128.0,0.060470679292708225,0.041977921801339406,0.0,0.0
168254784.0,0.04385582112005601,0.039992119415496234,0.0,0.0
168256440.0,0.0184134599837117,0.026214106453374547,0.0,0.0
168258100.0,-0.0055335639170899335,0.01261481570597818,0.0,0.0
168259756.0,-0.01719077531562967,-0.009744453874824394,0.0,0.0
168261412.0,-0.056692754563086464,-0.020879787288357314,0.0,0.0
168263068.0,-0.05514558478468093,-0.03000278643963051,0.0,0.0
168264732.0,-0.04004323687399974,-0.018123605583672667,0.0,0.0
168266380.0,-0.025080134243381864,-0.005423354804108761,0.0,0.0
168268036.0,-0.021476242924725865,-0.013792230301577085,0.0,0.0
168269692.0,0.040780969157180776,-0.013304128369206728,0.0,0.0
168271352.0,0.06271383102040724,0.007937172357936347,0.0,0.0
168273008.0,0.0590435437962587,0.019134543911158132,0.0,0.0
168274664.0,0.053399299004424895,0.03842019839895069,0.0,0.0
168276320.0,0.03808538006275763,0.03669808944694475,0.0,0.0
168277976.0,0.013279443152363934,0.023240271591039755,1.0,0.0
168279632.0,-0.04014824105328425,-0.01006255645918755,1.0,0.0
168281292.0,-0.07134339093700212,-0.02215418090237601,1.0,0.0
168282948.0,-0.04773004924220029,-0.011248550821052541,1.0,0.0
168284604.0,-0.08130914405787124,-0.03925467453984211,1.0,0.0
168286260.0,-0.017013439626073774,-0.03824230496595023,1.0,0.0
168287916.0,0.01030438333913634,-0.024709384257359322,1.0,0.0
168289572.0,0.011835592905481845,-0.0012675768104226624,1.0,0.0
168291232.0,0.040908198404959004,0.040956267772739106,1.0,0.0
168292884.0,0.04984299504346223,0.04107034968567942,1.0,0.0
168294544.0,0.07616125718701877,0.037384285586129495,1.0,0.0
168296200.0,0.03167538763311001,0.013687954114418345,1.0,0.0
168297856.0,0.0048208744862771775,-0.009676631588335585,1.0,0.0
168299512.0,-0.04802991040070102,0.00909145254136506,1.0,0.0
168301168.0,-0.048463789104464264,-0.020037650615679053,1.0,0.0
168302824.0,-0.04414109716840401,-0.030855881344405322,1.0,0.0
168304484.0,-0.03977935614900166,-0.019052492788990794,1.0,0.0
168306140.0,-0.025806657403849846,-0.046275463467997165,1.0,0.0
168307796.0,-0.0022265153504408327,-0.02456073911698458,1.0,0.0
168309452.0,0.04009608381591248,-0.0003959474048676739,1.0,0.0
168311108.0,0.06029647019744874,0.031814519115663215,1.0,0.0
168312764.0,0.006687822654016049,0.031850154382097894,1.0,0.0
168314420.0,0.04126114033624339,0.04898684766169048,1.0,0.0
168316080.0,0.06065923629738536,0.06612033376729826,1.0,0.0
168317732.0,0.026945733667121177,0.04171151747774611,1.0,0.0
168319392.0,-0.008513597599640665,0.015760687438690975,1.0,0.0
168321052.0,-0.05093871362968328,-0.027993349134303902,1.0,0.0
168322704.0,-0.08017248984571448,-0.049411811003790065,1.0,0.0
168324360.0,-0.05558800561904526,-0.05689240958169647,1.0,0.0
168326016.0,-0.01837248153292584,-0.052445346591357064,1.0,0.0
168327672.0,-0.0033695610272151764,-0.03732502972901007,1.0,0.0
168329332.0,0.008283962310748717,-0.012604948535778836,1.0,0.0
168330988.0,0.018587222803197516,0.010754304139830365,1.0,0.0
168332644.0,0.0878416661952307,0.05188874950804421,1.0,0.0
168334300.0,0.03616881614294122,0.04092086213546289,1.0,0.0
168335956.0,0.04826306618536989,0.036250874679740044,1.0,0.0
168337612.0,0.025007872732510296,0.02256799708754782,1.0,0.0
168339272.0,-0.00933580322417584,-0.0006945816336270828,1.0,0.0
168340924.0,-0.0515865117701012,-0.012725701371509798,1.0,0.0
168342584.0,-0.09074628947992708,-0.02266318902448052,1.0,0.0
168344240.0,-0.07610350342061627,-0.03151787590104748,1.0,0.0
168345896.0,-0.02793633736742624,-0.049478188888844234,1.0,0.0
168347552.0,0.008912977940432637,-0.026641580057749394,1.0,0.0
168349208.0,0.011427248303498725,-0.022188543057752273,1.0,0.0
168350868.0,0.04062508028886149,0.020209199147441764,1.0,0.0
168352524.0,0.059596627941544904,0.03220616802264231,1.0,0.0
168354180.0,0.04594037071554737,0.03038734009937255,1.0,0.0
168355836.0,0.05057667420080833,0.027488784977334174,1.0,0.0
168357492.0,0.026442040836408498,0.024753924368390075,1.0,0.0
168359148.0,0.0018901401583385881,0.022279933720432847,1.0,0.0
168360804.0,-0.0404896435169433,5.208052727489424e-05,1.0,0.0
168362464.0,-0.0806597561311898,-0.03195311350756293,1.0,0.0
168364120.0,-0.06701568821466773,-0.04195780075501937,1.0,0.0
168365776.0,-0.05975631016286236,-0.029082020539339278,1.0,0.0
168367432.0,-0.043724898223535445,-0.02530581847138697,1.0,0.0
168369088.0,0.021653169691122742,-0.012688436622840178,1.0,0.0
168370744.0,0.08558841053123582,-0.00041091296042046607,1.0,0.0
168372400.0,0.10363962525903705,0.020731046335630606,1.0,0.0
168374056.0,0.03593666831122582,0.040768028502076406,1.0,0.0
168375716.0,-0.043390897962083536,0.03890223433186624,1.0,0.0
168377372.0,-0.006625198110096134,0.03523311176668164,1.0,0.0
168379028.0,-0.02272001729351089,0.021731910676812537,1.0,0.0
168380684.0,-0.05212374946359997,-0.00143906938218881,1.0,0.0
168382340.0,-0.050078947907185124,0.006605058656894651,1.0,0.0
168383996.0,-0.04538781045546226,-0.02326542509870608,1.0,0.0
168385652.0,-0.0008807051438178733,-0.06385988037782717,1.0,0.0
168387308.0,0.023204197797177143,-0.03176599211894249,1.0,0.0
168388968.0,0.023283461260123026,-0.016018602884934632,1.0,0.0
168390624.0,0.0511950834583731,-0.0031596635942343536,1.0,0.0
168392280.0,0.04909957194495919,0.01828201066540749,1.0,0.0
168393936.0,0.04449201443370561,0.02856638038889427,1.0,0.0
168395592.0,0.030073052958662125,0.036920999429008734,1.0,0.0
168397248.0,0.016068771659629187,0.02435002519400711,1.0,0.0
168398908.0,0.05336219689335414,0.061027135245388935,1.0,0.0
168400564.0,0.0019160074439846745,0.02883563297793682,1.0,0.0
168402220.0,-0.0628865902764172,-0.026656809194148756,1.0,0.0
168403876.0,-0.1130590309463781,-0.0692520161621699,0.0,0.0
168405532.0,-0.12739923782149884,-0.08685290333469195,0.0,0.0
168407188.0,-0.07722392503632482,-0.040620221880098936,0.0,0.0
168408848.0,0.014242006367606676,-0.02280346057997439,0.0,0.0
168410500.0,0.04119215962087818,0.0008523593892311066,0.0,0.0
168412168.0,0.0899103790477953,0.012904670841431076,0.0,0.0
168413816.0,0.09620308468191627,0.022827958496398005,0.0,0.0
168415472.0,0.08811115056761298,0.03166653812067376,0.0,0.0
168417128.0,0.009452872946241076,0.049612021855992255,0.0,0.0
168418784.0,-0.018477130604847507,0.05676203342513446,0.0,0.0
168420440.0,-0.05932788917000636,0.012296951458093446,0.0,0.0
168422096.0,0.0023350525844350323,-0.02281163155016127,0.0,0.0
168423756.0,-0.022325437390265532,-0.05391835718139139,0.0,0.0
168425412.0,-0.09253559212286583,-0.04186531034188369,0.0,0.0
168427068.0,-0.06052630275774875,-0.047012658195556195,0.0,0.0
168428724.0,-0.0021980994666874107,-0.023244780264785523,0.0,0.0
168430380.0,0.003249267781506566,-0.009013641027182055,0.0,0.0
168432036.0,0.04344709673351526,0.023078389196645233,0.0,0.0
168433696.0,0.0731546626331791,0.043889616889093895,0.0,0.0
168435352.0,0.05924442392715931,0.04181256186139469,0.0,0.0
168437008.0,0.052660504290172626,0.0278624963413751,0.0,0.0
168438664.0,0.0273285061367317,0.02409936577385185,0.0,0.0
168440320.0,-0.007410939249386114,0.0015917411031297953,0.0,0.0
168441976.0,-0.04987050480168628,-0.010577201816523694,0.0,0.0
168443632.0,-0.0692035202692478,-0.020720458515800257,0.0,0.0
168445292.0,-0.054715174837094316,-0.039768510352317675,0.0,0.0
168446944.0,-0.04848685801286429,-0.037903669085893946,0.0,0.0
168448604.0,-0.003562492277526935,-0.014324503154182513,0.0,0.0
168450260.0,-0.019198675056367447,-0.010913172936450354,0.0,0.0
168451916.0,0.05112194924860827,0.02037603234741755,0.0,0.0
168453572.0,0.07284983000368873,0.031358217911700924,0.0,0.0
168455232.0,0.05824885457130888,0.03952437500043959,0.0,0.0
168456888.0,0.05169236987097519,0.026702135388381967,0.0,0.0
168458544.0,0.016449972959560227,0.023144941638341836,0.0,0.0
168460200.0,-0.008202340328829247,0.010741749453386889,0.0,0.0
168461856.0,-0.039682837895187395,-0.011341295294065015,0.0,0.0
168463512.0,-0.058944627265592194,-0.03230805274486585,0.0,0.0
168465168.0,-0.05537317185502419,-0.031287336168403984,0.0,0.0
168466824.0,-0.040068155401121464,-0.008379611421365488,0.0,0.0
168468492.0,-0.03508456993416815,-0.025563751166206287,0.0,0.0
168470136.0,0.018521564051933354,-0.024809586138286807,0.0,0.0
168471796.0,0.05167917534600508,0.007491151466674036,0.0,0.0
168473452.0,0.05001223458132767,0.04972401421912099,0.0,0.0
168475108.0,0.045361108800186074,0.0390498105871243,0.0,0.0
168476764.0,0.05086000768787284,0.04457464930739489,0.0,0.0
168478420.0,0.026777507895857793,0.011060166354555406,0.0,0.0
168480076.0,0.0022001072039458266,-0.012951552083111842,0.0,0.0
168481736.0,-0.04020986850668194,-0.02394696705501387,0.0,0.0
168483392.0,-0.060407878155035934,-0.04278132736754006,0.0,0.0
168485048.0,-0.05678898998943285,-0.04062610033258711,0.0,0.0
168486704.0,-0.061352280955484166,-0.02677578086950793,0.0,0.0
168488360.0,-0.026241271856435777,-0.023119431839574524,0.0,0.0
168490016.0,-0.0007195665704416332,-0.02070961156131824,0.0,0.0
168491676.0,0.031642147896635886,0.021371137304241193,0.0,0.0
168493328.0,0.05170690888797677,0.0332350023447587,0.0,0.0
168494988.0,0.06885911557728239,0.0413115999873787,0.0,0.0
168496644.0,0.04420549377736334,0.038320449776355535,0.0,0.0
168498300.0,0.028008173375409628,0.05460240577748634,0.0,0.0
168499956.0,-0.015970321064557626,0.03115356529761604,0.0,0.0
168501612.0,-0.02849105666834222,-0.0037606512223560262,0.0,0.0
168503272.0,-0.03705372777253317,-0.006564472099142038,0.0,0.0
168504924.0,-0.04448953267237555,-0.026226013489130565,0.0,0.0
168506584.0,-0.041154697172848705,-0.06563521100021119,0.0,0.0
168508240.0,-0.03715063923233604,-0.0732748697861849,0.0,0.0
168509896.0,-0.013446716486778516,-0.03736770079616987,0.0,0.0
168511552.0,0.01989684104413002,0.009227037484587912,0.0,0.0
168513208.0,0.05110704552793384,0.022590130556242635,0.0,0.0
168514864.0,0.07931632983396555,0.06175969718262916,0.0,0.0
168516524.0,0.06471669573645264,0.05972658543256903,0.0,0.0
168518180.0,0.047578226051396874,0.014168212686129555,0.0,0.0
168519836.0,0.001753723435117842,0.0087928199971955,0.0,0.0
168521492.0,-0.03252831690950845,0.04751768085545067,0.0,0.0
168523148.0,-0.052686152018667345,-0.023273672944297503,0.0,0.0
168524812.0,-0.079758603496815,-0.05755026422128806,0.0,0.0
168526460.0,-0.03501684981513778,-0.04545563365630413,0.0,0.0
168528120.0,-0.04783857550041988,-0.05027610987638422,0.0,0.0
168529776.0,-0.03468705901705805,-0.02618510284731799,1.0,0.0
168531432.0,0.03961841277798202,0.008339747041553748,1.0,0.0
168533088.0,0.05274024808951326,0.010696406297815778,1.0,0.0
168534744.0,0.059174590939496584,0.00994582906407594,1.0,0.0
168536400.0,0.0644279686114421,0.03898315249727025,1.0,0.0
168538056.0,0.029102255426887973,0.03808802788150739,1.0,0.0
168539716.0,0.02330373825185421,0.024579544156747388,1.0,0.0
168541372.0,-0.019315464736570264,0.04115162164741513,1.0,0.0
168543028.0,-0.061412801179233735,-0.011060537326694975,1.0,0.0
168544684.0,-0.07967440935294014,-0.04476418327496064,1.0,0.0
168546340.0,-0.0541472572468074,-0.04376873491555922,1.0,0.0
168547996.0,-0.036976560405041076,-0.04973995842081107,1.0,0.0
168549656.0,-0.012103307252829546,-0.03580077227841471,1.0,0.0
168551308.0,0.0012245831836167616,-0.0013241760205383027,1.0,0.0
168552968.0,0.0323138808363754,0.021897893484516182,1.0,0.0
168554624.0,0.07220366834985502,0.042017069326370886,1.0,0.0
168556280.0,0.08929541907457952,0.020046258912757603,1.0,0.0
168557936.0,0.052797088923092005,0.046264722673383656,1.0,0.0
168559592.0,0.014760501206374156,0.014460559371238312,1.0,0.0
168561248.0,-0.009991236796700144,-0.009703265669366218,1.0,0.0
168562908.0,-0.05131968190527439,-0.01100471601277994,1.0,0.0
168564564.0,-0.09042047059357308,-0.02013142210253016,1.0,0.0
168566220.0,-0.06580169922209952,-0.009140997661383942,1.0,0.0
168567876.0,-0.03766385686867511,-0.027329169672155092,1.0,0.0
168569532.0,-0.0017417039386884194,-0.036506479882632246,1.0,0.0
168571188.0,0.04164804317949405,-0.0140468546121326,1.0,0.0
168572848.0,0.04180479653397544,0.01923872857729805,1.0,0.0
168574500.0,0.06805647264782609,0.03050294549238885,1.0,0.0
168576156.0,0.054294040959764894,0.038771459920438844,1.0,0.0
168577816.0,0.03816895842145599,0.02602619482611873,1.0,0.0
168579472.0,0.023282494735081132,0.012536763433276393,1.0,0.0
168581136.0,-0.03015271152284707,0.02019440589892855,1.0,0.0
168582784.0,-0.0022481360490049372,0.00906609718993197,1.0,0.0
168584440.0,-0.039534392011951545,-0.022751399340967055,1.0,0.0
168586100.0,-0.04933205976753997,-0.03356734808806491,1.0,0.0
168587756.0,-0.05577396448646717,-0.04151972214737561,1.0,0.0
168589412.0,-0.061334079107391415,-0.03849866081945431,1.0,0.0
168591068.0,-0.00631442230360425,-0.014761885826184817,1.0,0.0
168592724.0,0.049205644816060976,0.008702993647564935,1.0,0.0
168594380.0,0.0797739428233831,0.02003156337192043,1.0,0.0
168596036.0,0.045345434789939874,0.029248293943643,1.0,0.0
168597692.0,0.03816577993583539,0.03744545324016903,1.0,0.0
168599348.0,0.024084690804741377,0.034813106785239446,1.0,0.0
168601008.0,0.0006497706105178941,0.011443015993620824,1.0,0.0
168602664.0,-0.06151785156191395,-0.01169016361704959,1.0,0.0
168604320.0,-0.05157633091685601,-0.03272003505647263,1.0,0.0
168605976.0,-0.05603972427628433,-0.0316679203309393,1.0,0.0
168607632.0,-0.01139785449377183,-0.038723117175860744,1.0,0.0
168609292.0,-0.0363542793089017,-0.035873004346072226,1.0,0.0
168610944.0,-0.03532847240446052,-0.012387923800243053,1.0,0.0
168612604.0,-0.042056587266661644,0.0008406465908994696,1.0,0.0
168614260.0,0.08112297524973924,0.02195555973292305,1.0,0.0
168615916.0,0.07490806810374107,0.04187990153974323,1.0,0.0
168617572.0,0.05760700033126112,0.039903901163785276,1.0,0.0
168619228.0,0.04086527420192442,0.03613471002520498,1.0,0.0
168620888.0,0.03568064417210808,0.022543358920463732,1.0,0.0
168622540.0,-0.01799723050606114,-0.010708764981809265,1.0,0.0
168624200.0,-0.07120848848155599,-0.03273766728464645,1.0,0.0
168625856.0,-0.05958873773600537,-0.03177387843628419,1.0,0.0
168627512.0,-0.09317997377266192,-0.028827488380663735,1.0,0.0
168629168.0,-0.05781698737642655,-0.04596783932139986,1.0,0.0
168630824.0,0.0005692102631101809,-0.013373365367140694,1.0,0.0
168632484.0,0.045772739126994255,0.03076374017178586,1.0,0.0
168634140.0,0.05572151020331036,0.021967343054826255,1.0,0.0
168635796.0,0.0916019636818843,0.029198606439365525,1.0,0.0
168637460.0,0.09658702776358466,0.04722154556442889,1.0,0.0
168639108.0,0.008342851032217338,0.034593670984891675,1.0,0.0
168640764.0,-0.0003499814665041444,0.020343731884091373,1.0,0.0
168642420.0,-0.011100838059404842,-0.0027696985045471763,1.0,0.0
168644080.0,-0.0110693397274189,-0.0246006343741154,1.0,0.0
168645732.0,-0.10007026430207361,-0.04435136150871184,1.0,0.0
168647392.0,-0.1090740237266059,-0.042137304415038046,1.0,0.0
168649048.0,-0.010067699939420983,-0.008145681879253408,1.0,0.0
168650704.0,0.019748962195975255,-0.014353324481899415,1.0,0.0
168652360.0,0.06065505519052144,-0.0036202131127677454,1.0,0.0
168654016.0,0.06887764859288822,0.0076715860906049075,1.0,0.0
168655672.0,0.06341869362573788,0.027997405270751164,0.0,0.0
168657328.0,-0.012780294747626614,0.03730696252259786,0.0,0.0
168658988.0,0.001512022826064367,0.06478719604822684,0.0,0.0
168660644.0,0.0026622493533496254,0.041429569421197014,0.0,0.0
168662300.0,-0.017473832701001855,-0.024401278223139426,0.0,0.0
168663956.0,-0.04771343514279934,-0.06812993947105511,0.0,0.0
168665612.0,-0.04614079019970804,-0.05593382443096631,0.0,0.0
168667268.0,-0.07184658103685497,-0.03980212987857647,0.0,0.0
168668924.0,-0.027693909918886924,-0.044768085679788364,0.0,0.0
168670584.0,0.03877228237443344,-0.04118589399071307,0.0,0.0
168672240.0,0.04126473426713156,0.012843233720467317,0.0,0.0
168673896.0,-0.012224771146567455,0.026549964179630355,0.0,0.0
168675552.0,0.03406140276939128,0.025394073144784885,0.0,0.0
168677208.0,0.05516163217258121,0.03300457636862327,0.0,0.0
168678864.0,0.022096105923337134,0.05071910978559206,0.0,0.0
168680520.0,-0.022868440972192337,0.03774869791241881,0.0,0.0
168682176.0,0.005142909494705049,0.01318397803170643,0.0,0.0
168683836.0,-0.012798930817800485,-0.00021340478040614828,0.0,0.0
168685492.0,-0.03326179267231939,-0.021399962803256317,0.0,0.0
168687148.0,-0.07210988889871849,-0.041380756373027155,0.0,0.0
168688804.0,-0.07911632755821314,-0.03945475972073465,0.0,0.0
168690460.0,-0.02262643755732394,-0.025730491647157662,0.0,0.0
168692116.0,0.014494031922914676,-0.012179563272286996,0.0,0.0
168693780.0,0.05653041130306986,0.01013618097595208,0.0,0.0
168695432.0,0.08522594843000754,0.031232341670459046,0.0,0.0
168697088.0,0.07013821141273693,0.04032008538262336,0.0,0.0
168698744.0,0.08246787605403626,0.05750917463228034,0.0,0.0
168700400.0,0.016155437026887088,0.03388036694784594,0.0,0.0
168702056.0,-0.0012666718179739035,0.018704541230940713,0.0,0.0
168703712.0,-0.06272066115039375,-0.024344691794362015,0.0,0.0
168705372.0,-0.10260666068677723,-0.03602810050515123,0.0,0.0
168707028.0,-0.06696180118324294,-0.04383707824365808,0.0,0.0
168708684.0,-0.02772720172143184,-0.040594549198198444,0.0,0.0
168710340.0,-0.011700639614937704,-0.026649212156262966,0.0,0.0
168711996.0,0.020794808539991164,-0.012995702728426812,0.0,0.0
168713652.0,0.04184786610533442,0.009402726365639132,0.0,0.0
168715308.0,0.0699763333367335,0.040572339611196974,0.0,0.0
168716964.0,0.03621002538725341,0.039726094238286616,0.0,0.0
168718624.0,0.05991215538694854,0.04607458367327661,0.0,0.0
168720280.0,0.03665325310209459,0.022499235191834797,0.0,0.0
168721936.0,-0.008738840882733053,0.008352522661237058,0.0,0.0
168723592.0,-0.05203763366191986,-0.01367240850602978,0.0,0.0
168725248.0,-0.07125113798247559,-0.02442413554553771,0.0,0.0
168726904.0,-0.05656775095289997,-0.03319361877999616,0.0,0.0
168728564.0,-0.060155148534480576,-0.04099544658090005,0.0,0.0
168730220.0,-0.03506405094871673,-0.02800802089069584,0.0,0.0
168731876.0,0.02034991241938709,-0.03431843069841995,0.0,0.0
168733532.0,0.053505677004769894,0.008202291181748927,0.0,0.0
168735188.0,0.06167418488702392,0.02129094994460161,0.0,0.0
168736844.0,0.04685867395659349,0.030552743738245344,0.0,0.0
168738500.0,0.021307997316762473,0.03863655824323234,0.0,0.0
168740160.0,0.027090716660674176,0.04588681130679139,0.0,0.0
168741816.0,0.005172996902167258,0.022409521064901617,0.0,0.0
168743472.0,-0.017265167597297966,-0.01172029195271302,0.0,0.0
168745128.0,-0.06773073731849699,-0.033737148848553035,0.0,0.0
168746784.0,-0.05617687223473507,-0.042682322572812265,0.0,0.0
168748440.0,-0.04008110587607147,-0.04964597917643625,0.0,0.0
168750104.0,0.004974812625051842,-0.045804570144884274,0.0,0.0
168751756.0,-0.0014178878460994523,-0.011336432019006151,0.0,0.0
168753412.0,0.018134379017648722,0.03278597929403173,0.0,0.0
168755068.0,0.01826198892379938,0.03380625817574115,0.0,0.0
168756724.0,0.02662989481220588,0.050855520039278866,0.0,0.0
168758380.0,0.05498631580906337,0.04781295680346329,0.0,0.0
168760036.0,0.052589625275965404,0.053235959999927626,0.0,0.0
168761692.0,0.027640856853150274,0.018932793887619342,0.0,0.0
168763348.0,-0.017092209421686617,-0.035858442512377554,0.0,0.0
168765008.0,-0.009579886538469003,-0.037562393962262734,0.0,0.0
168766664.0,-0.04804158769051778,-0.004335134136145907,0.0,0.0
168768320.0,-0.05717939790205671,-0.030954518679542263,0.0,0.0
168769976.0,-0.06285565500991011,-0.06056435660729482,0.0,0.0
168771632.0,-0.017709509198721024,-0.01777844992612862,0.0,0.0
168773288.0,0.027947499752166344,0.00767234216852564,0.0,0.0
168774944.0,0.05954135558005408,0.00927240266187892,0.0,0.0
168776600.0,0.0570260806023557,0.0185818918667082,0.0,0.0
168778260.0,0.051667358600153104,0.02774737562713967,0.0,0.0
168779916.0,0.03653501134594109,0.036075005359139906,0.0,0.0
168781572.0,0.011884949071927877,0.033577741552695065,1.0,0.0
168783228.0,-0.05140320194920625,0.020330991070371337,1.0,0.0
168784884.0,-0.05247284736568147,-0.012691005669374061,1.0,0.0
168786540.0,-0.057846559190251765,-0.034520794865706916,1.0,0.0
168788196.0,-0.053124002927343275,-0.043378604355465526,1.0,0.0
168789856.0,-0.01791781260021664,-0.04027173281754963,1.0,0.0
168791512.0,-0.0031366523367580175,-0.03636765842556057,1.0,0.0
168793168.0,0.008475950797259775,-0.012743202471973716,1.0,0.0
168794824.0,0.028758249507567998,0.020529886786319916,1.0,0.0
168796480.0,0.057995413935815754,0.03167677500880323,1.0,0.0
168798140.0,0.05540717148013407,0.029829085198031034,1.0,0.0
168799796.0,0.04018758422590951,0.026978175447240446,1.0,0.0
168801452.0,0.015200938792701426,0.03429355777941936,1.0,0.0
168803108.0,-0.018415943787636117,0.001865521989165444,1.0,0.0
168804764.0,-0.039784028278976404,-0.011220898210982868,1.0,0.0
168806428.0,-0.058126593338085175,-0.02138879519000662,1.0,0.0
168808076.0,-0.05454603079298128,-0.04037891435101817,1.0,0.0
168809736.0,-0.0493146373925502,-0.038453922783922116,1.0,0.0
168811392.0,-0.02440549462118416,-0.02481982049232764,1.0,0.0
168813048.0,-0.009967177255855778,-0.021358967441773513,1.0,0.0
168814704.0,0.05222931726005023,0.020874816402532,1.0,0.0
168816360.0,0.07312636321308123,0.042797123472299574,1.0,0.0
168818016.0,0.05842572465967387,0.04091838999607113,1.0,0.0
168819672.0,0.05184435197049769,0.04706664888355962,1.0,0.0
168821332.0,0.026586036751127615,0.023383993783913783,1.0,0.0
168822988.0,0.0019200450737828197,0.009147995384393417,1.0,0.0
168824644.0,-0.030472698233815827,-0.012956564056158255,1.0,0.0
168826300.0,-0.07064550229046423,-0.023779883640749684,1.0,0.0
168827956.0,-0.07790295944941512,-0.03261379287569999,1.0,0.0
168829612.0,-0.0615448642432779,-0.04047360334803536,1.0,0.0
168831268.0,-0.01453359789282485,-0.04753836198922009,1.0,0.0
168832928.0,0.031005439889063912,-0.0038957376878963356,1.0,0.0
168834580.0,0.05231346369942213,0.02038271489113461,1.0,0.0
168836240.0,0.07952297410940354,0.030733331283045846,1.0,0.0
168837896.0,0.06481476237645951,0.038898886942843165,1.0,0.0
168839552.0,0.057657694706616046,0.026132887127370177,1.0,0.0
168841208.0,0.011824366092730139,0.02263198730251145,1.0,0.0
168842864.0,-0.01336482643086701,0.010280027461048133,1.0,0.0
168844520.0,-0.04442901937920932,0.008243148603818692,1.0,0.0
168846176.0,-0.06322618500043413,-0.02268205386766825,1.0,0.0
168847836.0,-0.059227573256301305,-0.043423937242019324,1.0,0.0
168849492.0,-0.06353721660626735,-0.05138255239392407,1.0,0.0
168851148.0,-0.0682067350131991,-0.047474398042140056,1.0,0.0
168852804.0,-0.012488385518630489,-0.022849968326687457,1.0,0.0
168854460.0,0.04365022063255345,-0.008577272502896555,1.0,0.0
168856120.0,0.06477417532923191,0.0034792246465053167,1.0,0.0
168857772.0,0.06084565547230039,0.04425117917176999,1.0,0.0
168859428.0,0.055015979692672926,0.05393804895357769,1.0,0.0
168861088.0,0.03953987070016362,0.04995544282812237,1.0,0.0
168862748.0,0.014588432527821351,0.03510101842229867,1.0,0.0
168864400.0,-0.018970155835195082,0.0006050285677676563,1.0,0.0
168866056.0,-0.07028311476269844,-0.032554063090240365,1.0,0.0
168867716.0,-0.09857580073752634,-0.04260851566134059,1.0,0.0
168869372.0,-0.062250320408889157,-0.04967864998321669,1.0,0.0
168871024.0,-0.0333784983425044,-0.025843883573697733,1.0,0.0
168872684.0,0.012224030494294491,-0.021372805075206527,1.0,0.0
168874340.0,0.05522809534511591,0.0009531444464239958,1.0,0.0
168875996.0,0.09412793260063396,0.03287669690319429,1.0,0.0
168877652.0,0.04915740401956784,0.03279091390301613,1.0,0.0
168879312.0,0.04068589008551135,0.03983201118173433,1.0,0.0
168880964.0,-0.003738276276249189,0.0568808289304589,1.0,0.0
168882624.0,0.032599993616053084,0.04329594792410054,1.0,0.0
168884280.0,-0.017063561519083923,0.008176673320355824,1.0,0.0
168885936.0,-0.019997560944529265,-0.025719961992808113,1.0,0.0
168887592.0,-0.06846184040781342,-0.036455862591639,1.0,0.0
168889248.0,-0.04666205992279726,-0.04414106601229138,1.0,0.0
168890904.0,-0.06050049428609746,-0.040860038379043305,1.0,0.0
168892564.0,-0.056300908893047986,-0.026887342437931398,1.0,0.0
168894220.0,0.029144135592700786,-0.00320993898382091,1.0,0.0
168895876.0,0.054211217393074544,-0.000790078164405947,1.0,0.0
168897532.0,0.06158824518973489,0.009498816344137935,1.0,0.0
168899188.0,0.10670923562435591,0.06956992337893447,1.0,0.0
168900844.0,0.041166293557279764,0.048715029907958646,1.0,0.0
168902500.0,0.03156246235108546,0.032453736803859656,1.0,0.0
168904156.0,-0.03214250406906461,-0.01193061588786003,1.0,0.0
168905816.0,-0.04498312568066685,-0.014851452200205695,1.0,0.0
168907472.0,-0.0620903003144499,-0.03377769677029943,1.0,0.0
168909128.0,-0.05804181900319045,-0.04244106607227978,1.0,0.0
168910784.0,-0.052453691974889395,-0.039401073362955105,1.0,0.0
168912440.0,-0.037229928264598276,-0.005581377416449355,1.0,0.0
168914096.0,0.007490904013138365,0.007964719186217741,1.0,0.0
168915752.0,0.08084159755695165,0.008467043153697614,1.0,0.0
168917408.0,0.04016741619576976,-0.0022497815730619826,1.0,0.0
168919068.0,0.03289167241564695,-0.0030118154568959045,1.0,0.0
168920724.0,0.02927660495802824,0.047190664884680246,1.0,0.0
168922380.0,0.01631635444061604,0.03746172827580372,1.0,0.0
168924036.0,-0.006318540005605938,0.013214568436179085,1.0,0.0
168925692.0,-0.027787011905256266,-0.02015698710864098,1.0,0.0
168927348.0,-0.05721834330475798,-0.031346298267897664,1.0,0.0
168929008.0,-0.0647175122332872,-0.029532169428117705,1.0,0.0
168930664.0,-0.049567861335855,-0.03671100258401146,1.0,0.0
168932320.0,0.006256714765139715,-0.044053107335474614,1.0,0.0
168933976.0,0.02071782228537235,-0.010749117102916993,1.0,0.0
168935632.0,0.04015471795650807,0.023215662557272882,1.0,0.0
168937288.0,0.058290113950823425,0.034183083096535984,1.0,0.0
168938944.0,0.054676189334737134,0.04209367346638824,0.0,0.0
168940604.0,0.039430079079161316,0.04901719598769659,0.0,0.0
168942260.0,0.024509222039038384,0.02522876537572165,0.0,0.0
168943916.0,-0.019039485078089547,0.010817217736823842,0.0,0.0
168945572.0,-0.0612453150616013,-0.011453371146989402,0.0,0.0
168947228.0,-0.059531761404574376,-0.022426920743297298,0.0,0.0
168948884.0,-0.05401968304902913,-0.011396117340072228,0.0,0.0
168950540.0,-0.0486618245226163,-0.009377694473178884,0.0,0.0
168952196.0,-0.0038000530482099225,-0.02835204391257011,0.0,0.0
168953856.0,0.030579511158829526,-0.0275080514099806,0.0,0.0
168955512.0,0.08092151593316672,0.0050436325421473,0.0,0.0
168957168.0,0.09816935992887149,0.017519357169044986,0.0,0.0
168958824.0,-0.019113576505111814,0.02706543024025571,0.0,0.0
168960480.0,-0.017948818898708543,0.03548868809503882,0.0,0.0
168962140.0,0.02377140298675266,0.03305279937341751,0.0,0.0
168963792.0,0.025386796687636996,0.0098588174448589,0.0,0.0
168965452.0,-0.006752629581173586,0.016884065501255305,0.0,0.0
168967108.0,-0.06903744128306376,-0.01400322806878086,0.0,0.0
168968764.0,-0.038429704620756996,-0.04552279396389953,0.0,0.0
168970420.0,-0.052216334905280694,-0.044262503437707545,0.0,0.0
168972076.0,-0.03875766148940574,-0.05016545198095488,0.0,0.0
168973732.0,-0.014058191347931615,-0.02618182667155893,0.0,0.0
168975392.0,0.01942999818611604,-0.011666935993274124,0.0,0.0
168977048.0,0.060695235407427044,0.020689428407161065,0.0,0.0
168978704.0,0.05894653557067546,0.031739452646561424,0.0,0.0
168980360.0,0.053483964384003616,0.04987740408991636,0.0,0.0
168982016.0,0.0581787761826451,0.04702085335172412,0.0,0.0
168983672.0,0.023365219388088755,0.0325318869836379,0.0,0.0
168985328.0,-0.031870870468351006,-0.001699989818018405,0.0,0.0
168986988.0,-0.07397374021328297,-0.0446278596465515,0.0,0.0
168988644.0,-0.09110536187112855,-0.04447486056292985,0.0,0.0
168990300.0,-0.07444772525193308,-0.040458353194739644,0.0,0.0
168991956.0,-0.06624824268352866,-0.036455615744077664,0.0,0.0
168993612.0,-0.009547947410858668,-0.032814363956552794,0.0,0.0
168995268.0,0.05641439443065721,0.010466641460420445,0.0,0.0
168996924.0,0.06727370969763449,0.0334199342165102,0.0,0.0
168998580.0,0.052196414198873636,0.03247793648507122,0.0,0.0
169000240.0,0.0461417803260871,0.019470142405584166,0.0,0.0
169001896.0,0.04144410304819018,0.01654712812192719,0.0,0.0
169003552.0,0.0072913428188468845,0.034794815305427454,0.0,0.0
169005208.0,-0.02643862645549137,0.0433055737744506,0.0,0.0
169006864.0,-0.03709484730919043,-0.029825959603037307,0.0,0.0
169008524.0,-0.054715370928195645,-0.04372346124273957,0.0,0.0
169010184.0,-0.05137683467036736,-0.02103912487846223,0.0,0.0
169011832.0,-0.056452451286834876,-0.03710401336661908,0.0,0.0
169013492.0,-0.01182853616649783,-0.0252104921275535,0.0,0.0
169015148.0,0.023252184449318446,0.008128869075442219,0.0,0.0
169016804.0,0.04431675270430155,0.03039781336691976,0.0,0.0
169018460.0,0.07222405610386573,0.049666215150127126,0.0,0.0
169020116.0,0.058235548360474614,0.02693041194710889,0.0,0.0
169021776.0,0.05173538331112613,0.012460452583595173,0.0,0.0
169023432.0,0.01649418395868739,0.010036715508353099,0.0,0.0
169025088.0,-0.008162000539317373,0.008915274775829533,0.0,0.0
169026744.0,-0.02964647709559526,-0.01198802961991713,0.0,0.0
169028400.0,-0.058911897047057835,-0.03279040434974577,0.0,0.0
169030056.0,-0.056243714108457674,-0.03171148168394981,0.0,0.0
169031712.0,-0.06094164337422361,-0.028760345292472126,0.0,0.0
169033372.0,-0.035879709104453886,-0.01590631194091437,1.0,0.0
169035024.0,-0.00039496120078342384,-0.003317880864597563,1.0,0.0
169036684.0,0.05283421261861743,0.00811368721008871,1.0,0.0
169038340.0,0.06286975912669249,0.028412296487897944,1.0,0.0
169039996.0,0.06811467999101749,0.02768206463899337,1.0,0.0
169041652.0,0.06245640166961743,0.035124957955086536,1.0,0.0
169043308.0,0.03632608047042074,0.052633572137575434,1.0,0.0
169044964.0,0.010705004320158584,0.019472325921614228,1.0,0.0
169046620.0,-0.07256434292218326,-0.03526469557076813,1.0,0.0
169048280.0,-0.11352779331099243,-0.07701720490370945,1.0,0.0
169049936.0,-0.07699700244799593,-0.06384338230234314,1.0,0.0
169051592.0,-0.026779501050012294,-0.026911833861007588,1.0,0.0
169053248.0,-0.00984977082968868,-0.021165929453799547,1.0,0.0
169054904.0,-0.007439615735187005,0.0012561355936882936,1.0,0.0
169056560.0,0.033446863639481,0.013161069244535938,1.0,0.0
169058216.0,0.07411642905565238,0.043048017041106265,1.0,0.0
169059872.0,0.061106211328096814,0.04186352080909803,1.0,0.0
169061532.0,0.054435732713086965,0.0379891992753979,1.0,0.0
169063188.0,0.018936173693559388,0.02422148240257339,1.0,0.0
169064844.0,0.014036957749382696,0.0308024544677927,1.0,0.0
169066508.0,-0.03766729788303708,0.00862252105155825,1.0,0.0
169068156.0,-0.06893062408048437,-0.024149699850540253,1.0,0.0
169069816.0,-0.04554056727100478,-0.04492572674518846,1.0,0.0
169071472.0,-0.04933681110376687,-0.03275225375863301,1.0,0.0
169073128.0,-0.005238160049377006,-0.04870893835156832,1.0,0.0
169074784.0,0.01920215294996372,-0.025761235513293627,1.0,0.0
169076440.0,0.039673587354406514,0.008622568938353208,1.0,0.0
169078096.0,0.05794539358890978,0.04094108013454907,1.0,0.0
169079756.0,0.03437477072701547,0.02016504893009216,1.0,0.0
169081412.0,0.06915968530401416,0.05648035171798787,1.0,0.0
169083068.0,0.02606595593857992,0.04466549731427502,1.0,0.0
169084724.0,-0.00015841573877510215,0.029582265659661797,1.0,0.0
169086380.0,-0.032504351773251845,-0.014437629098625228,1.0,0.0
169088036.0,-0.062490094356764926,-0.03710003300799536,1.0,0.0
169089692.0,-0.049564702697167146,-0.0358006463891208,1.0,0.0
169091348.0,-0.053940594205060574,-0.05246164341839837,1.0,0.0
169093008.0,-0.029479770962318373,-0.03923958524338375,1.0,0.0
169094660.0,-0.014625117483858944,-0.024518037335726196,1.0,0.0
169096320.0,0.03802806190275028,0.009013525336183461,1.0,0.0
169097976.0,0.059344322476293614,0.04122014869639768,1.0,0.0
169099632.0,0.025921796905048356,0.04040893141614402,1.0,0.0
169101288.0,0.04058080788218023,0.046699118033460836,1.0,0.0
169102944.0,0.03824784616072644,0.02306231420600844,1.0,0.0
169104604.0,0.0245955734513342,0.008859393582996965,1.0,0.0
169106260.0,-0.008846732703136864,-0.013216214695542091,1.0,0.0
169107916.0,-0.06106033431375296,-0.03401356011801182,1.0,0.0
169109572.0,-0.060264128370470085,-0.032824100795414736,1.0,0.0
169111228.0,-0.06476869828223857,-0.03976288038479424,1.0,0.0
169112884.0,-0.049344926728893984,-0.036808711313205775,1.0,0.0
169114540.0,-0.003515743883490239,-0.02323005207857202,1.0,0.0
169116196.0,0.030925299522107947,8.273193961536203e-05,1.0,0.0
169117856.0,0.041241716471627186,0.022173436626687415,1.0,0.0
169119512.0,0.06845843951463691,0.03216599075212089,1.0,0.0
169121168.0,0.08474668503218875,0.050170381455719025,1.0,0.0
169122832.0,0.04858542547586802,0.03727544228803099,1.0,0.0
169124480.0,0.000958223822974441,0.012760107957012297,1.0,0.0
169126136.0,-0.04341446446985652,-0.0005946818489087871,1.0,0.0
169127792.0,-0.08350070461392196,-0.021743091565038192,1.0,0.0
169129452.0,-0.0595934028116343,-0.021689570198634125,1.0,0.0
169131108.0,-0.03207833939638416,-0.01973269195778353,1.0,0.0
169132764.0,-0.0867149331433331,-0.017780630639904753,1.0,0.0
169134420.0,-0.0038278825976624997,-0.006004688363709919,1.0,0.0
169136076.0,0.05397646138523975,-0.004404431606116786,1.0,0.0
169137732.0,0.07432097081903279,0.00613599034662279,1.0,0.0
169139388.0,0.06946308929436235,0.03653238919117444,1.0,0.0
169141044.0,0.09277420192064087,0.035980150059976686,1.0,0.0
169142704.0,0.06652252388415224,0.04269223503276928,1.0,0.0
169144360.0,0.028172845711293994,0.02945402152737081,1.0,0.0
169146016.0,-0.04781418143828256,-0.004388279625580133,1.0,0.0
169147672.0,-0.0903497375522973,0.002960858436954789,1.0,0.0
169149328.0,-0.11604646122285188,-0.006644196396740157,1.0,0.0
169150984.0,-0.04791498484314341,-0.03691067365606438,1.0,0.0
169152644.0,-0.03747080333308732,-0.04631269598036289,1.0,0.0
169154300.0,0.056841545302794456,-0.03299073535131368,1.0,0.0
169155956.0,0.00021391760276890433,-0.028822592713080453,1.0,0.0
169157612.0,-0.00490182147448146,0.004146573468540622,1.0,0.0
169159268.0,0.04507892594126821,0.026740606812713886,0.0,0.0
169160924.0,0.06552008987398063,0.0363674152005492,0.0,0.0
169162580.0,0.06146298653926536,0.03396076058740268,0.0,0.0
169164240.0,0.0255661784506071,0.03068769321935439,0.0,0.0
169165896.0,-0.019965490337933607,-0.002368775233515829,0.0,0.0
169167552.0,-0.06226644639848426,-0.015130667623256018,0.0,0.0
169169208.0,-0.06046955226807309,-0.044917477852240734,0.0,0.0
169170864.0,-0.05486557209220837,-0.02355571776614371,0.0,0.0
169172520.0,-0.019423312388081787,-0.039513144759449434,0.0,0.0
169174180.0,0.005514589100215831,-0.0373931301604965,0.0,0.0
169175832.0,0.0272626872151449,-0.04383694713214094,0.0,0.0
169177492.0,0.04676637419612206,-0.0004715654176996615,0.0,0.0
169179156.0,0.054312732346761296,0.04347375982419928,0.0,0.0
169180804.0,-0.029896241330886853,0.0335162007117877,0.0,0.0
169182460.0,0.015215612757903497,0.0596035623276109,0.0,0.0
169184116.0,0.04790627447768445,0.05658710426354944,0.0,0.0
169185772.0,0.026536869329472003,0.011222783654063321,0.0,0.0
169187432.0,-0.0477746953735196,-0.03387005572965613,0.0,0.0
169189088.0,-0.11016301361317038,-0.05488010625851899,0.0,0.0
169190744.0,-0.08586329102955362,-0.021831801242849367,0.0,0.0
169192400.0,-0.02594861980436885,-0.016892591679583794,0.0,0.0
169194056.0,-0.018220923611711865,-0.014927729567725647,0.0,0.0
169195712.0,0.014114452170683037,-0.0034073963165676515,0.0,0.0
169197368.0,0.07575433529574223,0.02793609934453164,0.0,0.0
169199024.0,0.09448403460037734,0.04824276501302216,0.0,0.0
169200684.0,0.05766614442375656,0.03572851607201601,0.0,0.0
169202340.0,0.0691625813097226,0.03138666722084516,0.0,0.0
169203996.0,0.033972628311583375,0.028171100774359737,0.0,0.0
169205652.0,-0.0022520040062876836,0.005346300724480262,0.0,0.0
169207308.0,-0.035309540554330755,-0.007189098345205294,0.0,0.0
169208964.0,-0.06510686019376316,-0.03767026541041477,0.0,0.0
169210620.0,-0.08192900154387227,-0.04702324655934573,0.0,0.0
169212280.0,-0.08606938412643812,-0.043632922672409535,0.0,0.0
169213936.0,-0.018695773987489048,-0.02940083048206728,0.0,0.0
169215592.0,0.039050470583894936,-0.005473867441548149,0.0,0.0
169217248.0,0.03073309024276724,-0.002827792698162662,0.0,0.0
169218904.0,0.05721854789021329,0.007664855371580651,0.0,0.0
169220560.0,0.034452569768364805,0.007919356714412448,0.0,0.0
169222216.0,0.04930290045824845,0.027229519730969053,0.0,0.0
169223872.0,0.036202169179090506,0.06651677762667023,0.0,0.0
169225532.0,0.01176490813784871,0.04406612085088244,0.0,0.0
169227188.0,-0.02149328708826773,-0.0019203891355150347,0.0,0.0
169228844.0,-0.052552128820672415,-0.03588634001209616,0.0,0.0
169230500.0,-0.08061773298273003,-0.045713504989902086,0.0,0.0
169232156.0,-0.08588804138887121,-0.03248373438881172,0.0,0.0
169233816.0,-0.0286324454204221,-0.03836951893972224,0.0,0.0
169235480.0,-0.0009025216954265287,-0.03544598284472805,0.0,0.0
169237128.0,0.03167439839241374,-0.011992726140150773,0.0,0.0
169238784.0,0.05175562534499985,0.021197412315875325,0.0,0.0
169240440.0,0.05890492948968432,0.04227675766849231,0.0,0.0
169242096.0,0.05424692320863604,0.04036899056006182,0.0,0.0
169243752.0,0.03894547955456161,0.02656408236989524,0.0,0.0
169245408.0,-0.01593674353421848,0.0229308732194874,0.0,0.0
169247068.0,-0.029441836694122203,0.010540105806195122,0.0,0.0
169248724.0,-0.058007529776041976,-0.011523672783554198,0.0,0.0
169250380.0,-0.05535776447357609,-0.03247228230611232,0.0,0.0
169252036.0,-0.04013708679372663,-0.051435151755589034,0.0,0.0
169253692.0,-0.03515488799110421,-0.03851264634804518,0.0,0.0
169255348.0,0.00845744982032607,-0.013883482690037053,0.0,0.0
169257008.0,0.001621389739526017,-0.00041734451871525916,0.0,0.0
169258664.0,0.04086021925570122,0.020832168923386372,0.0,0.0
169260320.0,0.08071429417913649,0.030869729930071314,0.0,0.0
169261976.0,0.0670368744461319,0.028994834726965405,0.0,0.0
169263632.0,0.029772587970003938,0.0462165590332624,0.0,0.0
169265288.0,0.023739269269856613,0.05360702390783494,0.0,0.0
169266944.0,-0.05894026364744716,0.009447533594840758,0.0,0.0
169268600.0,-0.04107679788173652,-0.025377098556860413,0.0,0.0
169270256.0,-0.03577217415346685,-0.04622737658040006,0.0,0.0
169271916.0,-0.06207526234410943,-0.0439434377102866,0.0,0.0
169273572.0,-0.05885576667029968,-0.029782973818047183,0.0,0.0
169275228.0,-0.023268993059324717,-0.015828064424119118,0.0,0.0
169276884.0,0.04202802594099998,-0.013147596780493733,0.0,0.0
169278540.0,0.054122235316336934,0.018276929017671306,0.0,0.0
169280196.0,0.06033971298165092,0.039460212727922564,0.0,0.0
169281852.0,0.06546871180317945,0.03781528911633158,0.0,0.0
169283512.0,0.04003813763483087,0.014263869970812294,0.0,0.0
169285168.0,0.014145953572545288,0.04086049395034416,0.0,0.0
169286824.0,-0.009457478814591197,0.00957674565297105,0.0,0.0
169288480.0,-0.04073061463612027,-0.014100698802558789,1.0,0.0
169290136.0,-0.06987944154280991,-0.024962605911326183,1.0,0.0
169291800.0,-0.05621368622555568,-0.023693543019092482,1.0,0.0
169293452.0,-0.04992453648670449,-0.031446908487073696,1.0,0.0
169295108.0,-0.024865304726400497,-0.03931448961535764,1.0,0.0
169296764.0,0.009627903557401772,-0.0464842678515176,1.0,0.0
169298420.0,0.03186578098277838,0.0070540362138594714,1.0,0.0
169300076.0,0.050999269662609384,0.04123762032050004,1.0,0.0
169301732.0,0.07813134937416047,0.040602757061254956,1.0,0.0
169303388.0,0.0635414151045296,0.026891371232402567,1.0,0.0
169305044.0,0.006509593660856294,0.03323712309689246,1.0,0.0
169306704.0,-0.009209133698554212,0.020816899685977934,1.0,0.0
169308360.0,-0.04979499712803128,-0.012174441392746368,1.0,0.0
169310016.0,-0.07896617509516368,-0.044047962364482114,1.0,0.0
169311672.0,-0.054484625353638017,-0.03295226263913607,1.0,0.0
169313328.0,-0.04737766959507613,-0.03898794602633382,1.0,0.0
169314984.0,-0.02247405331325155,-0.026022242388807595,1.0,0.0
169316644.0,0.001789936950309282,-0.012513327246436981,1.0,0.0
169318300.0,0.023812601748503626,0.009828674568552862,1.0,0.0
169319956.0,0.07365150742297864,0.02095487402073105,1.0,0.0
169321612.0,0.07150837326561103,0.030070293309563567,1.0,0.0
169323268.0,0.054879737597537843,0.03818435464770004,1.0,0.0
169324924.0,-0.0015560159963648786,0.025478028249837623,1.0,0.0
169326580.0,-0.006495192380141011,0.012041436331543481,1.0,0.0
169328240.0,-0.026355150940467607,-0.010251586210941339,1.0,0.0
169329892.0,-0.055770583626254915,-0.031335315480778544,1.0,0.0
169331552.0,-0.023398620041613964,-0.010412672721794962,1.0,0.0
169333208.0,-0.02837926751525216,-0.02759249432852717,1.0,0.0
169334864.0,-0.006273391711508609,-0.016655353783562213,1.0,0.0
169336520.0,0.016280742364868064,-0.014172029293996472,1.0,0.0
169338176.0,-0.013154652381098435,-0.002673047453475303,1.0,0.0
169339832.0,0.025380080806059465,0.01860243518298097,1.0,0.0
169341492.0,0.04656399952035889,0.028843009453795452,1.0,0.0
169343148.0,0.06427979224781809,0.037168790287330576,1.0,0.0
169344804.0,0.04008903229098465,0.0245729194364833,1.0,0.0
169346460.0,0.004303850988683295,0.011227728310621275,1.0,0.0
169348124.0,-0.03930416191750874,0.019016165561342894,1.0,0.0
169349772.0,-0.05969150850648739,-0.0019943299866124527,1.0,0.0
169351432.0,-0.06615413393391786,-0.023705784887132746,1.0,0.0
169353084.0,-0.030781898168332288,-0.04352629518833934,1.0,0.0
169354744.0,-0.0248280261142757,-0.051392774548494544,1.0,0.0
169356400.0,-0.012057655279124658,-0.027475407981545706,1.0,0.0
169358056.0,0.020176867071161297,-0.0028500582721823343,1.0,0.0
169359712.0,0.07126205604627854,0.029622728446158486,1.0,0.0
169361368.0,0.07944613800987516,0.03987923369065831,1.0,0.0
169363024.0,0.043032552965707245,0.037213188130504046,1.0,0.0
169364680.0,0.01588240054481905,0.03362405709834025,1.0,0.0
169366336.0,-0.037990529222091764,0.020274870166594315,1.0,0.0
169367996.0,-0.019419945271129457,-0.012751294972258014,1.0,0.0
169369652.0,-0.006000797641138924,-0.014576033287250934,1.0,0.0
169371308.0,-0.04425300256673273,-0.03342841673974657,1.0,0.0
169372964.0,-0.053712930779033635,-0.03211657374389399,1.0,0.0
169374624.0,-0.07973016054802769,-0.029108016237317937,1.0,0.0
169376280.0,-0.044895996777916364,-0.026217524600365204,1.0,0.0
169377936.0,0.022279717671411813,-0.013597803139007728,1.0,0.0
169379592.0,0.07632035738141973,0.008761774075027417,1.0,0.0
169381248.0,0.08431518279098926,0.03998557635753754,1.0,0.0
169382904.0,0.04744635062666035,0.019197016690782234,1.0,0.0
169384560.0,0.02985798417547473,0.025598314818603286,1.0,0.0
169386216.0,-0.04441218738092414,0.023870583316434022,1.0,0.0
169387876.0,-0.017099405956717433,0.01156673498275859,1.0,0.0
169389532.0,-0.013102309092434827,-0.010581617515719337,1.0,0.0
169391188.0,-0.02156336255633026,-0.021622623664162496,1.0,0.0
169392844.0,-0.030384154738011124,-0.03067027808775344,1.0,0.0
169394500.0,-0.01844345210793913,-0.03872424195798052,1.0,0.0
169396156.0,-0.06570887818151698,-0.025963916930077026,1.0,0.0
169397812.0,0.02595103250819697,0.007521264846140654,1.0,0.0
169399468.0,0.0018648315445312204,0.019858017369845316,1.0,0.0
169401128.0,0.05952923861879577,0.02918110353369095,1.0,0.0
169402784.0,0.0893614037797891,0.03739388197041112,1.0,0.0
169404444.0,0.06400377230409748,0.04476758265237439,1.0,0.0
169406096.0,0.035961245963910204,0.031402133275039094,1.0,0.0
169407752.0,-0.03979909354345573,0.007373050836321421,1.0,0.0
169409408.0,-0.05303560568020537,-0.01545314115843153,1.0,0.0
169411064.0,-0.059453687261296066,-0.03611671573369648,0.0,0.0
169412724.0,-0.014680482750078716,-0.05472593302943935,0.0,0.0
169414380.0,-0.009329650896564913,-0.031475428613408366,0.0,0.0
169416036.0,0.011991592550948426,-0.016550094640756553,0.0,0.0
169417692.0,-0.0471687388683613,-0.01371730606554639,0.0,0.0
169419348.0,-0.00824798219795007,0.007772202452120563,0.0,0.0
169421004.0,0.04599720430020188,0.029006759998018036,0.0,0.0
169422660.0,0.07673952269801795,0.028307261777324913,0.0,0.0
169424320.0,0.04259977431099865,0.025696653377506696,0.0,0.0
169425976.0,-0.0343067827318224,0.043148999817543485,0.0,0.0
169427632.0,-0.018140762419810573,0.030836301013571855,0.0,0.0
169429288.0,-0.045053151973944855,-0.023047108970005354,0.0,0.0
169430944.0,-0.03342048335616134,-0.07582237606122966,0.0,0.0
169432600.0,-0.01936569967850743,-0.043748136253934866,0.0,0.0
169434260.0,-0.03635785617645178,-0.03692412240842306,0.0,0.0
169435916.0,-0.02461494320538838,-0.03298679014557006,0.0,0.0
169437572.0,-0.001342736149507152,-0.019663619128806303,0.0,0.0
169439228.0,0.040872608738978376,0.013305191984292733,0.0,0.0
169440884.0,0.05099345499242947,0.025074917705884166,0.0,0.0
169442540.0,0.05731492020592767,0.0438774504273018,0.0,0.0
169444196.0,0.042725509256607314,0.051620707833767106,0.0,0.0
169445852.0,0.027567166438073252,0.037671737295312785,0.0,0.0
169447512.0,0.013721870604979161,0.04302587359027546,0.0,0.0
169449168.0,-0.03875917437444971,0.0296354172336956,0.0,0.0
169450824.0,-0.06999414272890069,-0.014236911389428628,0.0,0.0
169452480.0,-0.05650581703519736,-0.0369040989404635,0.0,0.0
169454136.0,-0.04020634418959004,-0.05562277691541436,0.0,0.0
169455792.0,-0.005120820656430239,-0.052301408010771516,0.0,0.0
169457452.0,0.018497750320636847,-0.03729535808838819,0.0,0.0
169459104.0,0.028958624179715564,-0.012588231367414212,0.0,0.0
169460764.0,0.03729382665085768,0.03076835086054243,0.0,0.0
169462420.0,0.05468755047468271,0.0819012916836103,0.0,0.0
169464076.0,0.051331106076105526,0.029132140106156917,0.0,0.0
169465732.0,0.0664092265333835,0.041761023854630284,0.0,0.0
169467388.0,0.011789426986536285,0.0191391312450773,0.0,0.0
169469048.0,-0.03418740340146539,-0.014619360901838858,0.0,0.0
169470704.0,-0.07524845183025991,-0.03634188271389354,0.0,0.0
169472360.0,-0.06217158552412461,-0.03502614023272577,0.0,0.0
169474016.0,-0.06539922485940634,-0.03175537078847649,0.0,0.0
169475672.0,-0.019803782162229437,-0.048603018167530605,0.0,0.0
169477328.0,-0.013917851924884572,-0.025745034796570563,0.0,0.0
169478984.0,0.027864488469713237,0.0086292368385089,0.0,0.0
169480644.0,0.03911709514295967,0.010946289970203093,0.0,0.0
169482300.0,0.05660929118068377,0.030169658654733315,0.0,0.0
169483956.0,0.04308875261781456,0.039184492557419584,0.0,0.0
169485612.0,0.027993916411556997,0.03646922327849415,0.0,0.0
169487268.0,0.004115928675951983,0.022942618948324115,0.0,0.0
169488924.0,-0.02840352380108644,-0.00033961114673922155,0.0,0.0
169490580.0,-0.04877395738192099,-0.012404446852094644,0.0,0.0
169492236.0,-0.06621764023983116,-0.03237388184888414,0.0,0.0
169493896.0,-0.061827984075457136,-0.041257481632200735,0.0,0.0
169495560.0,-0.03586839645386494,-0.04834383226579889,0.0,0.0
169497208.0,-0.0003038778870817576,-0.03463065891889969,0.0,0.0
169498864.0,0.03292427779376609,-0.0002797140149766483,0.0,0.0
169500520.0,0.04295162680360799,0.022837045287720348,0.0,0.0
169502176.0,0.03998844180216791,0.04286221954907507,0.0,0.0
169503836.0,0.04612279538984035,0.040806885473176256,0.0,0.0
169505488.0,0.04252383562764296,0.026949285713762344,0.0,0.0
169507148.0,0.008372784042561879,0.02327666602117591,0.0,0.0
169508804.0,-0.01545436116392997,-0.009148769693068387,0.0,0.0
169510460.0,-0.03620791172775997,-0.031243669634971945,0.0,0.0
169512116.0,-0.06481701922300287,0.009579719637402506,0.0,0.0
169513772.0,-0.0815583071675039,-0.0176083500954432,0.0,0.0
169515428.0,-0.0257247754374325,-0.008470524862816815,0.0,0.0
169517088.0,-0.008384527792356582,-0.0168857733542184,0.0,0.0
169518744.0,0.0339307019970095,-0.016123426116566024,0.0,0.0
169520400.0,0.05468530949831932,0.005396293485313065,0.0,0.0
169522056.0,0.07163154631859302,0.02684740183580003,0.0,0.0
169523712.0,0.05670986846374086,0.036361735422125264,0.0,0.0
169525368.0,0.04026302929506465,0.03394546925690554,0.0,0.0
169527024.0,-0.004840858866665776,0.030672913068909145,0.0,0.0
169528684.0,-0.008464531503222732,0.027617820835788787,0.0,0.0
169530340.0,-0.0480288542052194,-0.015142741340414744,0.0,0.0
169531996.0,-0.03726704636993276,-0.057628345215636305,0.0,0.0
169533652.0,-0.07294444949146017,-0.06626549849500125,0.0,0.0
169535308.0,-0.04959041531817134,-0.06107894742559115,0.0,0.0
169536964.0,-0.023025414863941066,-0.015115052561038188,0.0,0.0
169538620.0,0.0014377225146954926,-0.009617947292735553,1.0,0.0
169540280.0,0.0335100098524536,0.011742407437758454,1.0,0.0
169541936.0,0.06338061482613044,0.042608022694107496,1.0,0.0
169543592.0,0.05036471393940905,0.041551206024709235,1.0,0.0
169545248.0,0.04466045860505617,0.03771648398223729,1.0,0.0
169546904.0,0.030127634350509924,0.02397687544001175,1.0,0.0
169548560.0,-0.01389180692394627,0.010582391881606984,1.0,0.0
169550216.0,-0.04660329401548989,-0.011575526907994644,1.0,0.0
169551880.0,-0.06535303139234042,-0.03252794217733359,1.0,0.0
169553528.0,-0.06115873493094234,-0.031486144755619186,1.0,0.0
169555188.0,-0.05527696210563284,-0.04855862995965632,1.0,0.0
169556844.0,-0.009772675961843481,-0.045724876931650595,1.0,0.0
169558500.0,0.025202250627662907,-0.021354600235279252,1.0,0.0
169560156.0,0.04608179146422826,0.012760638688569304,1.0,0.0
169561812.0,0.06381358890773575,0.024682552709742164,1.0,0.0
169563468.0,0.049666227675952364,0.04353409522777207,1.0,0.0
169565128.0,0.043923004674256146,0.04131266548389641,1.0,0.0
169566784.0,0.02945304418342555,0.037394596913398054,1.0,0.0
169568440.0,0.005499973762745337,0.0136764570198434,1.0,0.0
169570096.0,-0.03715080021376808,0.00031094329764041703,1.0,0.0
169571752.0,-0.05764579785241345,-0.020919937834143216,1.0,0.0
169573408.0,-0.05430222583317717,-0.03094792273093313,1.0,0.0
169575068.0,-0.07911410402645712,-0.04906512832586024,1.0,0.0
169576720.0,-0.04422690370147231,-0.026279815280080804,1.0,0.0
169578380.0,-0.007106634339088326,-0.01186395373075054,1.0,0.0
169580036.0,0.04687378699404191,0.0005012296444550271,1.0,0.0
169581692.0,0.08751338408455646,0.04156898548022372,1.0,0.0
169583348.0,0.08329474325509495,0.05152387481221992,1.0,0.0
169585004.0,0.07541853868748657,0.04778266611900093,1.0,0.0
169586660.0,0.057922011794529736,0.03314551738590511,1.0,0.0
169588316.0,-0.008865656687344058,0.008845077435189908,1.0,0.0
169589976.0,-0.07407863774885572,-0.014138019129540415,1.0,0.0
169591632.0,-0.08328072864699021,-0.024934076098704665,1.0,0.0
169593288.0,-0.07661365124959263,-0.033661654377044894,1.0,0.0
169594944.0,-0.05911838567137032,-0.04141758752816602,1.0,0.0
169596600.0,-0.022223157058904715,-0.048388038634228574,1.0,0.0
169598256.0,0.013097497651520323,-0.0046604557566964685,1.0,0.0
169599916.0,0.03509758178682232,-0.0003055322796147597,1.0,0.0
169601568.0,0.06391880699818492,0.010113908738489061,1.0,0.0
169603228.0,0.06076002463737034,0.030141406643654958,1.0,0.0
169604884.0,0.045007332007531424,0.039231154857194354,1.0,0.0
169606540.0,0.03953892979016753,0.03651842825926256,1.0,0.0
169608204.0,0.03548826990948856,0.012987624322111093,1.0,0.0
169609852.0,-0.008070233771620833,-0.01029903422122197,1.0,0.0
169611508.0,-0.09126417806347879,-0.021467920410205718,1.0,0.0
169613164.0,-0.10053785702403063,-0.020541007330297442,1.0,0.0
169614824.0,-0.05232408099831584,-0.03860889449338348,1.0,0.0
169616480.0,-0.03327567386615138,-0.03676020383365899,1.0,0.0
169618136.0,0.0014334934236919345,-0.02328540332925049,1.0,0.0
169619792.0,0.0244283040716484,2.301501577654623e-05,1.0,0.0
169621448.0,0.04429928966351897,0.012118701315411932,1.0,0.0
169623108.0,0.08210074229706436,0.03211662996399375,1.0,0.0
169624760.0,0.07811380622734765,0.041025946845606114,1.0,0.0
169626420.0,0.010724739420618114,0.038135450148844396,1.0,0.0
169628076.0,0.013694496860150573,0.024443114932739846,1.0,0.0
169629732.0,-0.007270729687704491,0.0010109244193461239,1.0,0.0
169631388.0,-0.01850323440511804,-0.011188955924603873,1.0,0.0
169633044.0,-0.10784886873322123,-0.041279939122343894,1.0,0.0
169634704.0,-0.11618357763676174,-0.030272933089130677,1.0,0.0
169636356.0,-0.03647717945076899,-0.016557738568116886,1.0,0.0
169638016.0,0.023979342536537863,-0.013833174590093419,1.0,0.0
169639672.0,0.0372622886871031,-0.012342978118964603,1.0,0.0
169641328.0,0.08510414785881867,0.008902007594144942,1.0,0.0
169642984.0,0.061750541876977115,0.03001287562485119,1.0,0.0
169644640.0,0.02409116856968173,0.03921169494137928,1.0,0.0
169646300.0,0.00853361980075663,0.026510536135138124,1.0,0.0
169647956.0,0.07636541462948812,0.04298148359041285,1.0,0.0
169649612.0,-0.0044026111525856644,0.030595535338253266,1.0,0.0
169651268.0,-0.04127549846923846,-0.0032727981848833247,1.0,0.0
169652924.0,-0.06087926346550518,-0.02602639636532612,1.0,0.0
169654580.0,-0.037164468603272015,-0.035731844528689466,1.0,0.0
169656236.0,-0.02168533489137655,-0.04338946885580897,1.0,0.0
169657892.0,-0.0283405327170815,-0.04017360284822635,1.0,0.0
169659552.0,0.053611147423141825,-0.0062685506512052515,1.0,0.0
169661208.0,0.02616179536767916,0.007347073605138531,0.0,0.0
169662864.0,-0.02866320790040417,0.01791124316374416,0.0,0.0
169664528.0,-0.03101776948349587,0.03725000653928624,0.0,0.0
169666176.0,0.0415619192275388,0.03563799465454643,0.0,0.0
169667832.0,0.09435351848105059,0.012285494066007253,0.0,0.0
169669488.0,0.030612945750578352,0.01907807454710319,0.0,0.0
169671144.0,-0.03787887091271621,-0.012027619918843147,0.0,0.0
169672804.0,-0.07063403603026996,-0.0337446466280813,0.0,0.0
169674460.0,-0.057224937648126646,-0.03266216083538485,0.0,0.0
169676116.0,-0.040867874405398366,-0.039625142638855824,0.0,0.0
169677772.0,-0.015717630017068104,-0.02668554816367119,0.0,0.0
169679428.0,-0.002039521320583387,-0.013119285326169617,0.0,0.0
169681084.0,0.03937506538095332,-0.0007175859914454619,0.0,0.0
169682740.0,0.06955862229980751,0.05046314968791208,0.0,0.0
169684400.0,0.05601486641552059,0.05052773242713876,0.0,0.0
169686056.0,0.0397545904085345,0.04598604895522668,0.0,0.0
169687712.0,0.034713252431137646,0.01143855303678248,0.0,0.0
169689368.0,-0.008864660705629891,-0.03270019136918451,0.0,0.0
169691024.0,-0.04198885342443114,-0.013729661142495504,0.0,0.0
169692680.0,-0.08119103396092162,-0.03078664391926833,0.0,0.0
169694336.0,-0.06741203715272963,-0.009550974416441461,0.0,0.0
169695996.0,-0.05010484409624441,-0.02678017646370845,0.0,0.0
169697652.0,-0.004037760752496469,-0.015920588766225874,0.0,0.0
169699308.0,0.00047167521616552777,-0.003510372884494956,0.0,0.0
169700964.0,0.040835073683890215,-0.0020775198955351954,0.0,0.0
169702620.0,0.06079262291443361,0.018238413664066512,0.0,0.0
169704276.0,0.06711746628288746,0.03842539045467264,0.0,0.0
169705936.0,0.05164613022058333,0.03678393322490437,0.0,0.0
169707588.0,0.005605558255130276,0.03332564808398441,0.0,0.0
169709248.0,-0.009042593464726773,0.020015094093743014,0.0,0.0
169710904.0,-0.029547093707688498,-0.0029842142338189948,0.0,0.0
169712560.0,-0.048733260295861384,-0.024785572702255298,0.0,0.0
169714216.0,-0.05607402186217169,-0.03451699342121216,0.0,0.0
169715872.0,-0.04168802843553848,-0.03228629187801089,0.0,0.0
169717532.0,-0.04664136646794588,-0.03917976247010009,0.0,0.0
169719188.0,0.00711055609124918,-0.0262739962010757,0.0,0.0
169720852.0,0.041308279073368294,-0.002747817578771236,0.0,0.0
169722500.0,0.05066832902515075,0.01961684207932501,0.0,0.0
169724156.0,0.066950583908551,0.029864145661414425,0.0,0.0
169725812.0,0.052390434296288015,0.03809862987428199,0.0,0.0
169727468.0,0.026364881744518995,0.03541085676475128,0.0,0.0
169729128.0,0.0016497426578530694,0.021981980076064198,0.0,0.0
169730784.0,-0.03072309669915194,-0.001204997032762281,0.0,0.0
169732440.0,-0.060871573538361555,-0.02318337523960465,0.0,0.0
169734096.0,-0.06810649483544015,-0.033074925506660025,0.0,0.0
169735752.0,-0.06262805321698647,-0.040988421735098444,0.0,0.0
169737408.0,-0.046498468681794594,-0.03801167843949904,0.0,0.0
169739064.0,-0.010861943892266376,-0.03432272048334076,0.0,0.0
169740724.0,0.033322918289094575,-0.010901669423779018,0.0,0.0
169742380.0,0.02430049323939798,0.012187375419717672,0.0,0.0
169744036.0,0.08130143059337662,0.03316852566786006,0.0,0.0
169745692.0,0.07911438620183081,0.022071661880079214,0.0,0.0
169747348.0,0.041797257448424635,0.06908649456997182,0.0,0.0
169749004.0,0.014676962690265548,0.0371000450007698,0.0,0.0
169750660.0,-0.019084790480098354,0.010882260489471197,0.0,0.0
169752320.0,-0.04040571712222112,-0.032456743560598085,0.0,0.0
169753976.0,-0.05868808597900943,-0.04343614700464936,0.0,0.0
169755632.0,-0.04505157143800839,-0.030515040084193257,0.0,0.0
169757288.0,-0.07976964369989754,-0.036605786853777654,0.0,0.0
169758944.0,-0.03571500227047508,-0.013859433246198559,0.0,0.0
169760600.0,0.02146426566251343,-0.010564912429358,0.0,0.0
169762256.0,0.05467861586685505,0.020682436562798168,0.0,0.0
169763912.0,0.09274683195723056,0.05163327868143926,0.0,0.0
169765568.0,0.08782575652921189,0.05977185939078742,0.0,0.0
169767228.0,0.019478541653060566,0.025124864309460725,0.0,0.0
169768884.0,-0.05842577643456623,-0.010254603035714693,0.0,0.0
169770540.0,-0.020178845183342817,-0.00251584082356502,0.0,0.0
169772196.0,-0.024920525304229585,-0.031592926550350134,0.0,0.0
169773852.0,-0.043104429237727025,-0.031366500876227575,0.0,0.0
169775508.0,-0.030861581960348636,-0.008523137486696062,0.0,0.0
169777176.0,-0.046982183328955485,-0.015700152407834442,0.0,0.0
169778824.0,-0.024204640952523532,0.0150669299659665,0.0,0.0
169780480.0,0.010023755547080756,-0.013520056317324424,0.0,0.0
169782136.0,0.06220217323281072,0.01512391998573234,0.0,0.0
169783792.0,0.07130003523357459,0.016340725054293813,0.0,0.0
169785448.0,0.06570183964262503,0.02497957225557904,0.0,0.0
169787104.0,0.0492848364715965,0.023508907000689753,1.0,0.0
169788764.0,0.013371670903762518,0.021260745497687642,1.0,0.0
169790420.0,-0.01106396437868003,0.009144943867626699,1.0,0.0
169792076.0,-0.05226741476001581,-0.0127685232271686,1.0,0.0
169793732.0,-0.07127165796593916,-0.03359156817524989,1.0,0.0
169795388.0,-0.0565675906375349,-0.012442401084806987,1.0,0.0
169797044.0,-0.060153141420607195,-0.019419159949030516,1.0,0.0
169798700.0,-0.03506205826322109,-0.03829934385140414,1.0,0.0
169800356.0,0.0003517244646290079,-0.05655161945599026,1.0,0.0
169802016.0,0.04350730970832118,-0.023104678509359905,1.0,0.0
169803672.0,0.053475654506501165,0.03198496724167467,1.0,0.0
169805328.0,0.05955999663275567,0.054064388307518196,1.0,0.0
169806984.0,0.03474718772717,0.05118574125576975,1.0,0.0
169808640.0,0.009386788030221981,0.03631994630809368,1.0,0.0
169810296.0,-0.0037404588652227497,0.021713229595071565,1.0,0.0
169811952.0,-0.024585269787942732,-0.0015555655726551638,1.0,0.0
169813612.0,-0.044248628490070406,-0.03350975623621047,1.0,0.0
169815268.0,-0.05203595420916011,-0.033369755334674914,1.0,0.0
169816924.0,-0.04805357764505093,-0.0403538772734137,1.0,0.0
169818580.0,-0.02337034176622709,-0.03735059929329296,1.0,0.0
169820236.0,0.010954480221823515,-0.023718750338685157,1.0,0.0
169821892.0,0.03305781098078566,0.009642803597710074,1.0,0.0
169823552.0,0.05207190776081984,0.021777491128191738,1.0,0.0
169825204.0,0.06909670477255653,0.030909638804398402,1.0,0.0
169826864.0,0.05441023307407648,0.03894966460286285,1.0,0.0
169828520.0,0.02819152964455151,0.03616779711046643,1.0,0.0
169830176.0,0.0032946086678840576,0.0326623272962082,1.0,0.0
169831832.0,-0.0192426290001324,0.009407225556262243,1.0,0.0
169833496.0,-0.049539143780236855,-0.00353238390039479,1.0,0.0
169835144.0,-0.0678073071702272,-0.034379034200458396,1.0,0.0
169836804.0,-0.05334878423000476,-0.04406111964942627,1.0,0.0
169838460.0,-0.0472461265846826,-0.040967006571383885,1.0,0.0
169840116.0,-0.002444736003984446,-0.027001505802932105,1.0,0.0
169841772.0,0.05180741538863699,-0.02331447521150699,1.0,0.0
169843428.0,0.05202744162899218,0.019115660310752923,1.0,0.0
169845084.0,0.04736477424401769,0.04121396307979595,1.0,0.0
169846740.0,0.06268230449740897,0.029493553651823635,1.0,0.0
169848400.0,0.05841947481545249,0.0557842969746437,1.0,0.0
169850056.0,-0.01722193258932228,0.03312987714598356,1.0,0.0
169851712.0,-0.04247968532271073,0.008109290418257096,1.0,0.0
169853368.0,-0.04092971138967059,-0.024872398524876313,1.0,0.0
169855024.0,-0.05710653971062435,-0.03560223466252229,1.0,0.0
169856680.0,-0.053422865685553995,-0.043363718795285694,1.0,0.0
169858340.0,-0.03828327711160064,-0.05015951767565187,1.0,0.0
169859992.0,-0.003475219199903059,-0.01625678298407957,1.0,0.0
169861652.0,-2.972425985956948e-05,-0.0017424263932731725,1.0,0.0
169863308.0,0.0202830454681391,-0.0002793159247071481,1.0,0.0
169864964.0,0.08028572065152191,0.009877502450691416,1.0,0.0
169866620.0,0.0684602465593945,0.029902640883913922,1.0,0.0
169868276.0,0.07123453170075014,0.049013665663353405,1.0,0.0
169869936.0,0.025073109510409756,0.03632242798380228,1.0,0.0
169871592.0,-0.011337998342661738,0.011911198074096501,1.0,0.0
169873248.0,-0.07359457819859691,-0.011357820444445707,1.0,0.0
169874904.0,-0.08257415834775679,-0.03242982827111268,1.0,0.0
169876560.0,-0.05595064630988307,-0.04140762443111542,1.0,0.0
169878216.0,-0.09851897205858667,-0.03848893988671584,1.0,0.0
169879872.0,-0.0334834138906915,-0.02476225368791034,1.0,0.0
169881528.0,0.0253832935945796,-0.011298249098102503,1.0,0.0
169883184.0,0.08839680084473615,0.020930353733803177,1.0,0.0
169884844.0,0.08611230442122512,0.031947196152631835,1.0,0.0
169886500.0,0.058156592345202276,0.04006346431659467,1.0,0.0
169888156.0,0.050406484947291455,0.03718821666285723,1.0,0.0
169889820.0,-0.014827608363777896,0.023582504874360873,1.0,0.0
169891468.0,-0.0693641920090347,0.010235565374700308,1.0,0.0
169893124.0,-0.00802970725629582,-0.021886860063986487,0.0,0.0
169894780.0,-0.0617869299754827,-0.03280806094771122,0.0,0.0
169896440.0,-0.03106425632241778,-0.030838243541954143,0.0,0.0
169898096.0,-0.005503432624620925,-0.007885518056662407,0.0,0.0
169899752.0,-0.02270764955560617,-0.025110076137880282,0.0,0.0
169901408.0,-0.0022123406193919892,-0.01440037951277896,0.0,0.0
169903064.0,0.04983134784061485,-0.0021404726603748495,0.0,0.0
169904724.0,0.08003045849636183,0.01915556149577185,0.0,0.0
169906380.0,0.05554563719070933,0.029348204035209564,0.0,0.0
169908036.0,0.07834289592603677,0.037624203500592375,0.0,0.0
169909692.0,0.0033437885788723592,0.02498286513741953,0.0,0.0
169911348.0,-0.05370707205447209,0.021596686822369062,0.0,0.0
169913004.0,-0.0940080130265706,-0.010651771039999269,0.0,0.0
169914660.0,-0.02917437654166584,-0.022595472854011346,0.0,0.0
169916316.0,-0.020713655369273918,-0.011636813460411982,0.0,0.0
169917972.0,-0.048087961480525694,-0.03960322090355664,0.0,0.0
169919632.0,-0.03622373249729161,-0.028555907692114448,0.0,0.0
169921288.0,-0.021895815964049416,-0.024991617810797197,0.0,0.0
169922944.0,0.03136431996071081,-0.0024215861185068934,0.0,0.0
169924600.0,0.07333494339747754,0.029827659484468833,0.0,0.0
169926256.0,0.07051215460101129,0.03004560223513559,0.0,0.0
169927912.0,0.04391200969523433,0.03736111288153567,0.0,0.0
169929572.0,0.027565915781148996,0.04465700868036836,0.0,0.0
169931228.0,-0.026386165091425506,0.0012945085210341193,0.0,0.0
169932884.0,-0.02886709751172721,-0.012724622260201875,0.0,0.0
169934540.0,-0.07649234265349834,-0.022841128027092674,0.0,0.0
169936196.0,-0.07389430387744118,-0.04169591202368075,0.0,0.0
169937852.0,-0.03700999303862634,-0.03964021050123957,0.0,0.0
169939508.0,-0.040359505689656634,-0.02588757841910831,0.0,0.0
169941164.0,-0.007028606316180831,-0.02231995947399447,0.0,0.0
169942824.0,0.03660374919588656,0.010009922583723572,0.0,0.0
169944480.0,0.06723632376434341,0.022018718936380233,0.0,0.0
169946140.0,0.05394198633671248,0.0411178259038508,0.0,0.0
169947792.0,0.0478907171979176,0.06913614119956976,0.0,0.0
169949448.0,0.03303593842761802,0.06543553686822659,0.0,0.0
169951104.0,0.028725773879804867,0.009213284160262472,0.0,0.0
169952760.0,-0.004247460578680189,-0.07667591415787225,0.0,0.0
169954420.0,-0.03683278022786263,-0.07750510973229416,0.0,0.0
169956076.0,-0.07645050877577914,-0.030604277458089635,0.0,0.0
169957732.0,-0.07313555855527491,-0.03362881758218714,0.0,0.0
169959388.0,-0.04625501276545195,-0.0008744326109567961,0.0,0.0
169961044.0,-0.019672812495478344,-0.007847839028558248,0.0,0.0
169962700.0,0.04449013865341063,0.002230859906427295,0.0,0.0
169964356.0,0.10626069177800256,0.04293716541899868,0.0,0.0
169966016.0,0.06225657929919616,0.06273638802742248,0.0,0.0
169967672.0,0.06269311703918218,0.048872043139710344,0.0,0.0
169969328.0,0.037090024902247706,0.03322576821724118,0.0,0.0
169970984.0,0.0014476443687235817,-0.011172715665331049,0.0,0.0
169972640.0,-0.05189045787247588,-0.014163034804885597,0.0,0.0
169974296.0,-0.03202074586566554,-0.02315749039499955,0.0,0.0
169975956.0,-0.04735060465713873,-0.04188281726256724,0.0,0.0
169977608.0,-0.07446873752922997,0.010201356872981019,0.0,0.0
169979268.0,-0.06020718311008863,-0.02602918957338168,0.0,0.0
169980924.0,-0.013504996732455652,-0.0069473116919556545,0.0,0.0
169982580.0,0.04191364974745062,-0.004604684630347892,0.0,0.0
169984236.0,0.053129099453369924,0.01602057342192357,0.0,0.0
