timestamp,Outer forearm sensor value (1),Inner forearm sensor value (2),left mouse button,right mouse button
361910256.0,324.0,323.0,0.0,0.0
361911912.0,323.0,324.0,0.0,0.0
361913568.0,321.0,323.0,0.0,0.0
361915224.0,319.0,325.0,0.0,0.0
361916880.0,321.0,324.0,0.0,0.0
361918536.0,321.0,325.0,0.0,0.0
361920196.0,321.0,324.0,0.0,0.0
361921848.0,321.0,323.0,0.0,0.0
361923508.0,321.0,321.0,0.0,0.0
361925164.0,322.0,320.0,0.0,0.0
361926820.0,322.0,321.0,0.0,0.0
361928476.0,322.0,322.0,0.0,0.0
361930132.0,324.0,323.0,0.0,0.0
361931796.0,324.0,322.0,0.0,0.0
361933448.0,325.0,322.0,0.0,0.0
361935104.0,322.0,325.0,0.0,0.0
361936760.0,322.0,326.0,0.0,0.0
361938416.0,320.0,325.0,0.0,0.0
361940072.0,321.0,324.0,0.0,0.0
361941728.0,322.0,322.0,0.0,0.0
361943384.0,320.0,322.0,0.0,0.0
361945044.0,321.0,321.0,0.0,0.0
361946700.0,322.0,321.0,0.0,0.0
361948356.0,324.0,321.0,0.0,0.0
361950012.0,324.0,322.0,0.0,0.0
361951668.0,324.0,324.0,0.0,0.0
361953324.0,326.0,327.0,0.0,0.0
361954984.0,323.0,325.0,0.0,0.0
361956640.0,321.0,325.0,0.0,0.0
361958296.0,320.0,325.0,0.0,0.0
361959952.0,319.0,324.0,0.0,0.0
361961608.0,320.0,322.0,0.0,0.0
361963264.0,322.0,322.0,0.0,0.0
361964920.0,322.0,321.0,0.0,0.0
361966576.0,321.0,320.0,0.0,0.0
361968236.0,324.0,323.0,0.0,0.0
361969892.0,327.0,325.0,0.0,0.0
361971548.0,323.0,323.0,0.0,0.0
361973204.0,323.0,324.0,0.0,0.0
361974860.0,323.0,324.0,0.0,0.0
361976516.0,321.0,325.0,0.0,0.0
361978172.0,319.0,325.0,0.0,0.0
361979832.0,320.0,325.0,0.0,0.0
361981488.0,319.0,323.0,0.0,0.0
361983144.0,320.0,322.0,0.0,0.0
361984800.0,322.0,321.0,0.0,0.0
361986456.0,326.0,323.0,0.0,0.0
361988120.0,323.0,321.0,0.0,0.0
361989768.0,324.0,322.0,0.0,0.0
361991428.0,324.0,323.0,0.0,0.0
361993084.0,324.0,324.0,0.0,0.0
361994740.0,323.0,325.0,0.0,0.0
361996396.0,322.0,325.0,0.0,0.0
361998052.0,321.0,324.0,0.0,0.0
361999708.0,321.0,324.0,0.0,0.0
362001364.0,323.0,326.0,0.0,0.0
362003020.0,322.0,325.0,0.0,0.0
362004680.0,321.0,322.0,0.0,0.0
362006336.0,322.0,322.0,0.0,0.0
362007992.0,323.0,320.0,0.0,0.0
362009648.0,324.0,322.0,0.0,0.0
362011304.0,324.0,324.0,0.0,0.0
362012960.0,322.0,324.0,0.0,0.0
362014616.0,323.0,325.0,0.0,0.0
362016276.0,322.0,326.0,0.0,0.0
362017932.0,322.0,323.0,0.0,0.0
362019588.0,325.0,326.0,0.0,0.0
362021244.0,320.0,322.0,0.0,0.0
362022900.0,319.0,322.0,0.0,0.0
362024556.0,319.0,321.0,0.0,0.0
362026216.0,321.0,321.0,0.0,0.0
362027872.0,323.0,321.0,0.0,0.0
362029528.0,325.0,321.0,0.0,0.0
362031184.0,324.0,322.0,0.0,0.0
362032840.0,324.0,324.0,0.0,0.0
362034496.0,322.0,324.0,0.0,0.0
362036152.0,322.0,325.0,0.0,0.0
362037808.0,320.0,325.0,0.0,0.0
362039468.0,319.0,324.0,0.0,0.0
362041124.0,320.0,323.0,0.0,0.0
362042780.0,320.0,321.0,0.0,0.0
362044444.0,322.0,321.0,0.0,0.0
362046092.0,322.0,321.0,0.0,0.0
362047748.0,323.0,321.0,0.0,0.0
362049404.0,323.0,321.0,0.0,0.0
362051064.0,323.0,322.0,0.0,0.0
362052720.0,324.0,324.0,0.0,0.0
362054376.0,324.0,324.0,0.0,0.0
362056032.0,323.0,324.0,0.0,0.0
362057688.0,320.0,324.0,0.0,0.0
362059344.0,320.0,325.0,0.0,0.0
362061000.0,320.0,324.0,0.0,0.0
362062660.0,320.0,322.0,0.0,0.0
362064316.0,320.0,322.0,0.0,0.0
362065972.0,322.0,322.0,0.0,0.0
362067628.0,322.0,321.0,0.0,0.0
362069284.0,327.0,325.0,0.0,0.0
362070940.0,325.0,322.0,0.0,0.0
362072600.0,323.0,323.0,0.0,0.0
362074256.0,324.0,325.0,0.0,0.0
362075912.0,324.0,325.0,0.0,0.0
362077568.0,321.0,325.0,0.0,0.0
362079224.0,319.0,324.0,0.0,0.0
362080880.0,317.0,323.0,0.0,0.0
362082536.0,318.0,323.0,0.0,0.0
362084196.0,321.0,322.0,0.0,0.0
362085852.0,324.0,325.0,0.0,0.0
362087508.0,327.0,324.0,0.0,0.0
362089164.0,328.0,319.0,0.0,0.0
362090820.0,324.0,320.0,0.0,0.0
362092476.0,323.0,323.0,0.0,0.0
362094132.0,322.0,325.0,0.0,0.0
362095792.0,322.0,326.0,0.0,0.0
362097448.0,322.0,325.0,0.0,0.0
362099104.0,322.0,324.0,0.0,0.0
362100764.0,319.0,324.0,0.0,0.0
362102416.0,321.0,324.0,0.0,0.0
362104072.0,322.0,323.0,0.0,0.0
362105728.0,322.0,321.0,0.0,0.0
362107384.0,322.0,320.0,0.0,0.0
362109040.0,323.0,322.0,0.0,0.0
362110700.0,323.0,320.0,0.0,0.0
362112356.0,324.0,323.0,0.0,0.0
362114012.0,323.0,324.0,0.0,0.0
362115668.0,322.0,325.0,0.0,0.0
362117324.0,321.0,325.0,0.0,0.0
362118980.0,321.0,325.0,0.0,0.0
362120640.0,320.0,324.0,0.0,0.0
362122296.0,321.0,323.0,0.0,0.0
362123952.0,322.0,323.0,0.0,0.0
362125608.0,323.0,322.0,0.0,0.0
362127264.0,321.0,320.0,0.0,0.0
362128920.0,320.0,321.0,0.0,0.0
362130580.0,321.0,322.0,0.0,0.0
362132232.0,323.0,322.0,0.0,0.0
362133892.0,324.0,324.0,0.0,0.0
362135548.0,326.0,327.0,0.0,0.0
362137204.0,325.0,326.0,0.0,0.0
362138860.0,321.0,325.0,0.0,0.0
362140516.0,321.0,324.0,0.0,0.0
362142172.0,321.0,323.0,0.0,0.0
362143832.0,321.0,322.0,0.0,0.0
362145484.0,321.0,321.0,0.0,0.0
362147144.0,323.0,321.0,0.0,0.0
362148800.0,324.0,320.0,0.0,0.0
362150456.0,322.0,322.0,0.0,0.0
362152112.0,324.0,325.0,0.0,0.0
362153768.0,325.0,326.0,0.0,0.0
362155428.0,324.0,324.0,0.0,0.0
362157084.0,322.0,325.0,0.0,0.0
362158740.0,321.0,326.0,0.0,0.0
362160396.0,321.0,324.0,0.0,0.0
362162052.0,320.0,321.0,0.0,0.0
362163708.0,319.0,321.0,0.0,0.0
362165364.0,321.0,321.0,0.0,0.0
362167020.0,321.0,322.0,0.0,0.0
362168676.0,322.0,322.0,0.0,0.0
362170336.0,322.0,323.0,0.0,0.0
362171992.0,324.0,322.0,0.0,0.0
362173648.0,324.0,323.0,0.0,0.0
362175304.0,324.0,324.0,0.0,0.0
362176960.0,322.0,324.0,0.0,0.0
362178616.0,322.0,325.0,0.0,0.0
362180272.0,321.0,325.0,0.0,0.0
362181932.0,320.0,324.0,0.0,0.0
362183588.0,319.0,323.0,0.0,0.0
362185244.0,322.0,322.0,0.0,0.0
362186900.0,323.0,321.0,0.0,0.0
362188556.0,322.0,321.0,0.0,0.0
362190216.0,322.0,322.0,0.0,0.0
362191872.0,323.0,323.0,0.0,0.0
362193528.0,322.0,323.0,0.0,0.0
362195184.0,322.0,324.0,0.0,0.0
362196840.0,321.0,323.0,0.0,0.0
362198496.0,321.0,324.0,0.0,0.0
362200152.0,321.0,325.0,0.0,0.0
362201808.0,321.0,327.0,0.0,0.0
362203468.0,324.0,324.0,0.0,0.0
362205124.0,321.0,321.0,0.0,0.0
362206780.0,321.0,321.0,0.0,0.0
362208436.0,322.0,321.0,0.0,0.0
362210092.0,323.0,321.0,0.0,0.0
362211748.0,323.0,322.0,0.0,0.0
362213404.0,323.0,323.0,0.0,0.0
362215064.0,323.0,324.0,0.0,0.0
362216720.0,321.0,325.0,0.0,0.0
362218376.0,321.0,326.0,0.0,0.0
362220032.0,324.0,327.0,0.0,0.0
362221688.0,319.0,324.0,0.0,0.0
362223344.0,319.0,323.0,0.0,0.0
362225000.0,320.0,321.0,0.0,0.0
362226660.0,321.0,321.0,0.0,0.0
362228316.0,322.0,320.0,0.0,0.0
362229972.0,323.0,322.0,0.0,0.0
362231628.0,323.0,323.0,0.0,0.0
362233284.0,323.0,324.0,0.0,0.0
362234940.0,324.0,323.0,1.0,0.0
362236596.0,322.0,324.0,1.0,0.0
362238252.0,322.0,325.0,1.0,0.0
362239912.0,320.0,324.0,1.0,0.0
362241568.0,320.0,323.0,1.0,0.0
362243224.0,319.0,323.0,1.0,0.0
362244880.0,320.0,322.0,1.0,0.0
362246536.0,321.0,321.0,1.0,0.0
362248200.0,323.0,321.0,1.0,0.0
362249852.0,324.0,322.0,1.0,0.0
362251508.0,324.0,322.0,1.0,0.0
362253164.0,323.0,323.0,1.0,0.0
362254820.0,324.0,324.0,1.0,0.0
362256476.0,322.0,324.0,1.0,0.0
362258132.0,322.0,325.0,1.0,0.0
362259792.0,320.0,325.0,1.0,0.0
362261444.0,318.0,323.0,1.0,0.0
362263104.0,320.0,323.0,1.0,0.0
362264760.0,323.0,322.0,1.0,0.0
362266416.0,322.0,321.0,1.0,0.0
362268072.0,322.0,322.0,1.0,0.0
362269728.0,326.0,325.0,1.0,0.0
362271384.0,324.0,323.0,1.0,0.0
362273040.0,324.0,323.0,1.0,0.0
362274700.0,323.0,325.0,1.0,0.0
362276356.0,322.0,325.0,1.0,0.0
362278012.0,322.0,323.0,1.0,0.0
362279668.0,322.0,324.0,1.0,0.0
362281324.0,319.0,322.0,1.0,0.0
362282980.0,319.0,322.0,1.0,0.0
362284636.0,319.0,322.0,1.0,0.0
362286292.0,323.0,326.0,1.0,0.0
362287952.0,323.0,327.0,1.0,0.0
362289608.0,324.0,321.0,1.0,0.0
362291264.0,323.0,321.0,1.0,0.0
362292920.0,322.0,321.0,1.0,0.0
362294576.0,323.0,323.0,1.0,0.0
362296236.0,323.0,323.0,1.0,0.0
362297892.0,321.0,325.0,1.0,0.0
362299548.0,322.0,326.0,1.0,0.0
362301204.0,321.0,325.0,1.0,0.0
362302860.0,319.0,321.0,1.0,0.0
362304524.0,321.0,321.0,1.0,0.0
362306172.0,322.0,321.0,1.0,0.0
362307828.0,321.0,321.0,1.0,0.0
362309488.0,322.0,322.0,1.0,0.0
362311144.0,322.0,322.0,1.0,0.0
362312800.0,323.0,324.0,1.0,0.0
362314456.0,324.0,323.0,1.0,0.0
362316112.0,323.0,325.0,1.0,0.0
362317768.0,323.0,324.0,1.0,0.0
362319424.0,321.0,325.0,1.0,0.0
362321080.0,321.0,324.0,1.0,0.0
362322740.0,321.0,323.0,1.0,0.0
362324396.0,320.0,323.0,1.0,0.0
362326052.0,321.0,322.0,1.0,0.0
362327708.0,320.0,321.0,1.0,0.0
362329364.0,321.0,322.0,1.0,0.0
362331020.0,322.0,322.0,1.0,0.0
362332680.0,323.0,322.0,1.0,0.0
362334336.0,322.0,324.0,1.0,0.0
362335992.0,327.0,328.0,1.0,0.0
362337648.0,330.0,325.0,1.0,0.0
362339304.0,325.0,325.0,1.0,0.0
362340960.0,322.0,324.0,1.0,0.0
362342616.0,325.0,324.0,1.0,0.0
362344272.0,320.0,323.0,1.0,0.0
362345932.0,311.0,321.0,1.0,0.0
362347588.0,317.0,321.0,1.0,0.0
362349244.0,326.0,321.0,1.0,0.0
362350900.0,325.0,321.0,1.0,0.0
362352556.0,324.0,324.0,1.0,0.0
362354212.0,326.0,323.0,1.0,0.0
362355872.0,326.0,324.0,1.0,0.0
362357524.0,316.0,325.0,1.0,0.0
362359184.0,315.0,325.0,1.0,0.0
362360848.0,321.0,324.0,1.0,0.0
362362496.0,321.0,324.0,1.0,0.0
362364152.0,321.0,323.0,1.0,0.0
362365808.0,323.0,322.0,1.0,0.0
362367464.0,326.0,320.0,1.0,0.0
362369124.0,321.0,320.0,1.0,0.0
362370780.0,321.0,322.0,1.0,0.0
362372436.0,324.0,321.0,1.0,0.0
362374092.0,324.0,324.0,0.0,0.0
362375748.0,323.0,325.0,0.0,0.0
362377408.0,321.0,326.0,0.0,0.0
362379060.0,323.0,325.0,0.0,0.0
362380716.0,322.0,323.0,0.0,0.0
362382376.0,322.0,323.0,0.0,0.0
362384032.0,318.0,323.0,0.0,0.0
362385688.0,324.0,324.0,0.0,0.0
362387344.0,324.0,321.0,0.0,0.0
362389000.0,323.0,321.0,0.0,0.0
362390660.0,324.0,322.0,0.0,0.0
362392312.0,323.0,322.0,0.0,0.0
362393972.0,323.0,323.0,0.0,0.0
362395628.0,323.0,325.0,0.0,0.0
362397284.0,323.0,326.0,0.0,0.0
362398940.0,322.0,324.0,0.0,0.0
362400596.0,322.0,324.0,0.0,0.0
362402256.0,321.0,327.0,0.0,0.0
362403908.0,320.0,323.0,0.0,0.0
362405568.0,321.0,321.0,0.0,0.0
362407224.0,321.0,322.0,0.0,0.0
362408880.0,322.0,321.0,0.0,0.0
362410536.0,323.0,322.0,0.0,0.0
362412192.0,324.0,321.0,0.0,0.0
362413848.0,323.0,322.0,0.0,0.0
362415508.0,323.0,323.0,0.0,0.0
362417172.0,323.0,324.0,0.0,0.0
362418820.0,322.0,325.0,0.0,0.0
362420476.0,321.0,325.0,0.0,0.0
362422132.0,318.0,324.0,0.0,0.0
362423788.0,319.0,323.0,0.0,0.0
362425444.0,318.0,322.0,0.0,0.0
362427104.0,322.0,321.0,0.0,0.0
362428760.0,323.0,321.0,0.0,0.0
362430416.0,323.0,321.0,0.0,0.0
362432072.0,324.0,321.0,0.0,0.0
362433728.0,323.0,323.0,0.0,0.0
362435384.0,323.0,324.0,0.0,0.0
362437040.0,322.0,324.0,0.0,0.0
362438700.0,322.0,325.0,0.0,0.0
362440356.0,322.0,325.0,0.0,0.0
362442012.0,320.0,324.0,0.0,0.0
362443668.0,320.0,325.0,0.0,0.0
362445324.0,322.0,323.0,0.0,0.0
362446980.0,321.0,321.0,0.0,0.0
362448636.0,322.0,322.0,0.0,0.0
362450292.0,323.0,321.0,0.0,0.0
362451952.0,325.0,325.0,0.0,0.0
362453608.0,325.0,324.0,0.0,0.0
362455264.0,322.0,324.0,0.0,0.0
362456920.0,323.0,325.0,0.0,0.0
362458576.0,324.0,324.0,0.0,0.0
362460232.0,321.0,325.0,0.0,0.0
362461892.0,320.0,325.0,0.0,0.0
362463548.0,319.0,324.0,0.0,0.0
362465204.0,320.0,322.0,0.0,0.0
362466860.0,323.0,320.0,0.0,0.0
362468516.0,322.0,322.0,0.0,0.0
362470172.0,324.0,321.0,0.0,0.0
362471828.0,322.0,322.0,0.0,0.0
362473496.0,324.0,322.0,0.0,0.0
362475144.0,325.0,323.0,0.0,0.0
362476800.0,322.0,325.0,0.0,0.0
362478456.0,322.0,325.0,0.0,0.0
362480112.0,320.0,325.0,0.0,0.0
362481768.0,321.0,324.0,0.0,0.0
362483424.0,321.0,324.0,0.0,0.0
362485084.0,321.0,324.0,0.0,0.0
362486736.0,322.0,323.0,0.0,0.0
362488396.0,322.0,322.0,0.0,0.0
362490052.0,321.0,320.0,0.0,0.0
362491708.0,322.0,320.0,0.0,0.0
362493364.0,323.0,322.0,0.0,0.0
362495020.0,324.0,323.0,0.0,0.0
362496676.0,324.0,324.0,0.0,0.0
362498336.0,322.0,324.0,0.0,0.0
362499992.0,320.0,325.0,0.0,0.0
362501648.0,321.0,325.0,0.0,0.0
362503304.0,321.0,324.0,0.0,0.0
362504960.0,320.0,322.0,0.0,0.0
362506616.0,321.0,321.0,0.0,0.0
362508276.0,322.0,322.0,0.0,0.0
362509928.0,321.0,322.0,0.0,0.0
362511588.0,323.0,321.0,0.0,0.0
362513244.0,325.0,322.0,0.0,0.0
362514900.0,323.0,322.0,0.0,0.0
362516556.0,324.0,324.0,0.0,0.0
362518212.0,322.0,324.0,0.0,0.0
362519868.0,321.0,324.0,0.0,0.0
362521528.0,325.0,329.0,0.0,0.0
362523184.0,321.0,324.0,0.0,0.0
362524840.0,320.0,322.0,0.0,0.0
362526496.0,321.0,321.0,0.0,0.0
362528152.0,322.0,321.0,0.0,0.0
362529816.0,322.0,321.0,0.0,0.0
362531464.0,323.0,321.0,0.0,0.0
362533120.0,323.0,322.0,0.0,0.0
362534780.0,323.0,323.0,0.0,0.0
362536436.0,326.0,327.0,0.0,0.0
362538092.0,323.0,324.0,0.0,0.0
362539748.0,320.0,324.0,0.0,1.0
362541404.0,322.0,326.0,0.0,1.0
362543060.0,321.0,323.0,0.0,1.0
362544716.0,321.0,322.0,0.0,1.0
362546376.0,321.0,322.0,0.0,1.0
362548032.0,321.0,322.0,0.0,1.0
362549688.0,322.0,321.0,0.0,1.0
362551344.0,323.0,321.0,0.0,1.0
362553000.0,323.0,321.0,0.0,1.0
362554660.0,322.0,323.0,0.0,1.0
362556312.0,322.0,324.0,0.0,1.0
362557968.0,320.0,324.0,0.0,1.0
362559628.0,320.0,325.0,0.0,1.0
362561284.0,321.0,325.0,0.0,1.0
362562940.0,321.0,325.0,0.0,1.0
362564596.0,321.0,323.0,0.0,1.0
362566252.0,323.0,323.0,0.0,1.0
362567912.0,323.0,322.0,0.0,1.0
362569568.0,323.0,321.0,0.0,1.0
362571224.0,322.0,322.0,0.0,1.0
362572880.0,322.0,321.0,0.0,1.0
362574536.0,323.0,323.0,0.0,1.0
362576192.0,323.0,324.0,0.0,1.0
362577848.0,322.0,325.0,0.0,1.0
362579504.0,322.0,324.0,0.0,1.0
362581164.0,322.0,326.0,0.0,1.0
362582820.0,324.0,325.0,0.0,1.0
362584476.0,323.0,324.0,0.0,1.0
362586140.0,324.0,324.0,0.0,1.0
362587788.0,322.0,321.0,0.0,1.0
362589444.0,322.0,320.0,0.0,1.0
362591100.0,314.0,321.0,0.0,1.0
362592756.0,320.0,321.0,0.0,1.0
362594416.0,323.0,322.0,0.0,1.0
362596072.0,324.0,324.0,0.0,1.0
362597728.0,324.0,326.0,0.0,1.0
362599384.0,323.0,325.0,0.0,1.0
362601040.0,322.0,324.0,0.0,1.0
362602700.0,322.0,328.0,0.0,1.0
362604356.0,320.0,324.0,0.0,1.0
362606012.0,322.0,322.0,0.0,1.0
362607668.0,324.0,322.0,0.0,1.0
362609324.0,323.0,321.0,0.0,1.0
362610980.0,322.0,321.0,0.0,1.0
362612636.0,318.0,322.0,0.0,1.0
362614296.0,322.0,323.0,0.0,1.0
362615952.0,325.0,324.0,0.0,1.0
362617608.0,324.0,324.0,0.0,1.0
362619264.0,323.0,325.0,0.0,1.0
362620920.0,322.0,324.0,0.0,1.0
362622576.0,323.0,325.0,0.0,1.0
362624232.0,320.0,323.0,0.0,1.0
362625888.0,323.0,323.0,0.0,1.0
362627548.0,321.0,322.0,0.0,1.0
362629204.0,321.0,322.0,0.0,1.0
362630860.0,322.0,321.0,0.0,1.0
362632516.0,325.0,321.0,0.0,1.0
362634172.0,322.0,322.0,0.0,1.0
362635828.0,324.0,325.0,0.0,1.0
362637484.0,320.0,325.0,0.0,1.0
362639144.0,328.0,325.0,0.0,1.0
362640800.0,327.0,324.0,0.0,1.0
362642460.0,327.0,324.0,0.0,1.0
362644112.0,319.0,324.0,0.0,1.0
362645768.0,317.0,323.0,0.0,1.0
362647424.0,311.0,322.0,0.0,1.0
362649080.0,321.0,321.0,0.0,1.0
362650736.0,316.0,321.0,0.0,1.0
362652396.0,325.0,324.0,0.0,1.0
362654052.0,326.0,323.0,0.0,1.0
362655708.0,326.0,323.0,0.0,1.0
362657364.0,325.0,323.0,0.0,1.0
362659020.0,324.0,324.0,0.0,1.0
362660680.0,324.0,325.0,0.0,1.0
362662336.0,323.0,324.0,0.0,1.0
362663988.0,323.0,323.0,0.0,1.0
362665648.0,318.0,323.0,0.0,1.0
362667304.0,318.0,322.0,0.0,0.0
362668960.0,321.0,322.0,0.0,0.0
362670616.0,320.0,321.0,0.0,0.0
362672276.0,323.0,322.0,0.0,0.0
362673928.0,324.0,322.0,0.0,0.0
362675588.0,324.0,321.0,0.0,0.0
362677244.0,327.0,324.0,0.0,0.0
362678900.0,324.0,325.0,0.0,0.0
362680556.0,320.0,325.0,0.0,0.0
362682212.0,319.0,325.0,0.0,0.0
362683868.0,319.0,324.0,0.0,0.0
362685524.0,320.0,323.0,0.0,0.0
362687184.0,321.0,321.0,0.0,0.0
362688840.0,320.0,323.0,0.0,0.0
362690496.0,322.0,322.0,0.0,0.0
362692152.0,323.0,321.0,0.0,0.0
362693808.0,324.0,321.0,0.0,0.0
362695464.0,325.0,322.0,0.0,0.0
362697120.0,323.0,324.0,0.0,0.0
362698780.0,323.0,325.0,0.0,0.0
362700436.0,322.0,325.0,0.0,0.0
362702092.0,325.0,328.0,0.0,0.0
362703748.0,322.0,325.0,0.0,0.0
362705404.0,319.0,323.0,0.0,0.0
362707060.0,321.0,323.0,0.0,0.0
362708720.0,321.0,323.0,0.0,0.0
362710376.0,322.0,322.0,0.0,0.0
362712032.0,323.0,320.0,0.0,0.0
362713688.0,323.0,320.0,0.0,0.0
362715344.0,325.0,321.0,0.0,0.0
362717000.0,323.0,324.0,0.0,0.0
362718656.0,325.0,326.0,0.0,0.0
362720312.0,323.0,327.0,0.0,0.0
362721972.0,321.0,325.0,0.0,0.0
362723628.0,319.0,324.0,0.0,0.0
362725284.0,320.0,323.0,0.0,0.0
362726940.0,321.0,323.0,0.0,0.0
362728596.0,321.0,322.0,0.0,0.0
362730252.0,322.0,322.0,0.0,0.0
362731908.0,322.0,321.0,0.0,0.0
362733564.0,325.0,321.0,0.0,0.0
362735220.0,321.0,322.0,0.0,0.0
362736880.0,323.0,323.0,0.0,0.0
362738536.0,323.0,324.0,0.0,0.0
362740192.0,323.0,325.0,0.0,0.0
362741848.0,321.0,325.0,0.0,0.0
362743508.0,321.0,325.0,0.0,0.0
362745160.0,320.0,323.0,0.0,0.0
362746820.0,319.0,323.0,0.0,0.0
362748476.0,321.0,321.0,0.0,0.0
362750132.0,322.0,321.0,0.0,0.0
362751788.0,323.0,321.0,0.0,0.0
362753444.0,323.0,322.0,0.0,0.0
362755100.0,323.0,323.0,0.0,0.0
362756760.0,325.0,324.0,0.0,0.0
362758416.0,324.0,324.0,0.0,0.0
362760072.0,321.0,324.0,0.0,0.0
362761728.0,321.0,326.0,0.0,0.0
362763384.0,320.0,324.0,0.0,0.0
362765040.0,321.0,324.0,0.0,0.0
362766696.0,321.0,322.0,0.0,0.0
362768356.0,322.0,324.0,0.0,0.0
362770012.0,323.0,322.0,0.0,0.0
362771668.0,322.0,321.0,0.0,0.0
362773324.0,323.0,322.0,0.0,0.0
362774980.0,324.0,322.0,0.0,0.0
362776636.0,322.0,323.0,0.0,0.0
362778292.0,323.0,325.0,0.0,0.0
362779948.0,322.0,324.0,0.0,0.0
362781608.0,322.0,324.0,0.0,0.0
362783264.0,321.0,324.0,0.0,0.0
362784920.0,320.0,325.0,0.0,0.0
362786576.0,322.0,324.0,0.0,0.0
362788232.0,322.0,321.0,0.0,0.0
362789896.0,323.0,322.0,1.0,0.0
362791544.0,322.0,322.0,1.0,0.0
362793200.0,322.0,320.0,1.0,0.0
362794860.0,322.0,322.0,1.0,0.0
362796516.0,324.0,325.0,1.0,0.0
362798172.0,325.0,323.0,1.0,0.0
362799828.0,324.0,323.0,1.0,0.0
362801484.0,321.0,325.0,1.0,0.0
362803140.0,320.0,324.0,1.0,0.0
362804800.0,318.0,324.0,1.0,0.0
362806456.0,319.0,323.0,1.0,0.0
362808112.0,322.0,321.0,1.0,0.0
362809768.0,324.0,320.0,1.0,0.0
362811424.0,323.0,322.0,1.0,0.0
362813080.0,323.0,321.0,1.0,0.0
362814736.0,322.0,321.0,1.0,0.0
362816396.0,323.0,324.0,1.0,0.0
362818052.0,323.0,324.0,1.0,0.0
362819708.0,322.0,325.0,1.0,0.0
362821364.0,323.0,326.0,1.0,0.0
362823020.0,322.0,324.0,1.0,0.0
362824676.0,319.0,323.0,1.0,0.0
362826332.0,318.0,322.0,1.0,0.0
362827988.0,320.0,323.0,1.0,0.0
362829648.0,322.0,322.0,1.0,0.0
362831304.0,323.0,321.0,1.0,0.0
362832960.0,323.0,321.0,1.0,0.0
362834616.0,324.0,323.0,1.0,0.0
362836272.0,327.0,325.0,1.0,0.0
362837928.0,324.0,324.0,1.0,0.0
362839584.0,323.0,324.0,1.0,0.0
362841240.0,323.0,324.0,1.0,0.0
362842900.0,321.0,325.0,1.0,0.0
362844556.0,320.0,323.0,1.0,0.0
362846220.0,320.0,323.0,1.0,0.0
362847868.0,321.0,321.0,1.0,0.0
362849524.0,321.0,321.0,1.0,0.0
362851184.0,321.0,325.0,1.0,0.0
362852840.0,324.0,324.0,1.0,0.0
362854496.0,323.0,322.0,1.0,0.0
362856152.0,324.0,322.0,1.0,0.0
362857808.0,324.0,323.0,1.0,0.0
362859464.0,323.0,323.0,1.0,0.0
362861120.0,323.0,324.0,1.0,0.0
362862780.0,322.0,325.0,1.0,0.0
362864436.0,321.0,324.0,1.0,0.0
362866092.0,321.0,323.0,1.0,0.0
362867748.0,321.0,323.0,1.0,0.0
362869404.0,323.0,322.0,1.0,0.0
362871060.0,322.0,321.0,1.0,0.0
362872716.0,319.0,322.0,1.0,0.0
362874372.0,320.0,321.0,1.0,0.0
362876032.0,321.0,322.0,1.0,0.0
362877688.0,324.0,322.0,1.0,0.0
362879344.0,322.0,325.0,1.0,0.0
362881000.0,321.0,324.0,1.0,0.0
362882656.0,323.0,324.0,1.0,0.0
362884316.0,319.0,326.0,1.0,0.0
362885968.0,324.0,326.0,1.0,0.0
362887624.0,323.0,322.0,1.0,0.0
362889284.0,323.0,322.0,1.0,0.0
362890940.0,324.0,321.0,1.0,0.0
362892596.0,321.0,321.0,1.0,0.0
362894252.0,322.0,322.0,1.0,0.0
362895908.0,324.0,322.0,1.0,0.0
362897564.0,323.0,323.0,1.0,0.0
362899224.0,324.0,324.0,1.0,0.0
362900880.0,321.0,325.0,1.0,0.0
362902544.0,325.0,327.0,1.0,0.0
362904192.0,324.0,325.0,1.0,0.0
362905848.0,321.0,323.0,1.0,0.0
362907504.0,320.0,324.0,1.0,0.0
362909160.0,321.0,321.0,1.0,0.0
362910820.0,324.0,320.0,1.0,0.0
362912476.0,322.0,321.0,1.0,0.0
362914132.0,322.0,321.0,1.0,0.0
362915788.0,320.0,321.0,1.0,0.0
362917444.0,323.0,323.0,1.0,0.0
362919100.0,327.0,327.0,1.0,0.0
362920760.0,323.0,325.0,1.0,0.0
362922416.0,322.0,325.0,1.0,0.0
362924072.0,319.0,324.0,1.0,0.0
362925728.0,313.0,324.0,1.0,0.0
362927384.0,325.0,322.0,1.0,0.0
362929040.0,320.0,321.0,1.0,0.0
362930696.0,325.0,321.0,1.0,0.0
362932356.0,326.0,321.0,1.0,0.0
362934008.0,322.0,322.0,1.0,0.0
362935668.0,318.0,323.0,1.0,0.0
362937324.0,325.0,323.0,1.0,0.0
362938980.0,318.0,324.0,1.0,0.0
362940636.0,319.0,325.0,1.0,0.0
362942292.0,324.0,325.0,1.0,0.0
362943948.0,323.0,325.0,1.0,0.0
362945604.0,321.0,325.0,1.0,0.0
362947264.0,319.0,322.0,1.0,0.0
362948920.0,321.0,321.0,1.0,0.0
362950576.0,324.0,321.0,1.0,0.0
362952232.0,327.0,325.0,1.0,0.0
362953888.0,324.0,321.0,1.0,0.0
362955548.0,325.0,321.0,1.0,0.0
362957204.0,322.0,323.0,1.0,0.0
362958868.0,319.0,324.0,1.0,0.0
362960516.0,322.0,325.0,1.0,0.0
362962172.0,324.0,324.0,1.0,0.0
362963828.0,330.0,324.0,1.0,0.0
362965484.0,321.0,324.0,1.0,0.0
362967140.0,312.0,323.0,1.0,0.0
362968796.0,317.0,324.0,1.0,0.0
362970456.0,323.0,322.0,1.0,0.0
362972112.0,323.0,321.0,1.0,0.0
362973768.0,323.0,321.0,1.0,0.0
362975424.0,320.0,322.0,1.0,0.0
362977080.0,326.0,322.0,0.0,0.0
362978740.0,320.0,325.0,0.0,0.0
362980392.0,325.0,325.0,0.0,0.0
362982052.0,324.0,324.0,0.0,0.0
362983708.0,321.0,325.0,0.0,0.0
362985364.0,322.0,325.0,0.0,0.0
362987020.0,321.0,324.0,0.0,0.0
362988676.0,322.0,322.0,0.0,0.0
362990332.0,322.0,321.0,0.0,0.0
362991992.0,321.0,321.0,0.0,0.0
362993648.0,322.0,322.0,0.0,0.0
362995304.0,322.0,321.0,0.0,0.0
362996960.0,324.0,321.0,0.0,0.0
362998616.0,323.0,323.0,0.0,0.0
363000272.0,322.0,325.0,0.0,0.0
363001928.0,322.0,324.0,0.0,0.0
363003584.0,321.0,324.0,0.0,0.0
363005240.0,321.0,325.0,0.0,0.0
363006900.0,320.0,324.0,0.0,0.0
363008556.0,321.0,324.0,0.0,0.0
363010212.0,321.0,322.0,0.0,0.0
363011868.0,321.0,321.0,0.0,0.0
363013524.0,322.0,321.0,0.0,0.0
363015188.0,323.0,322.0,0.0,0.0
363016840.0,324.0,323.0,0.0,0.0
363018496.0,327.0,326.0,0.0,0.0
363020152.0,325.0,326.0,0.0,0.0
363021808.0,322.0,325.0,0.0,0.0
363023464.0,322.0,325.0,0.0,0.0
363025120.0,320.0,324.0,0.0,0.0
363026776.0,320.0,324.0,0.0,0.0
363028436.0,320.0,323.0,0.0,0.0
363030092.0,321.0,322.0,0.0,0.0
363031748.0,322.0,320.0,0.0,0.0
363033404.0,322.0,321.0,0.0,0.0
363035060.0,323.0,324.0,0.0,0.0
363036716.0,325.0,322.0,0.0,0.0
363038376.0,323.0,322.0,0.0,0.0
363040032.0,322.0,324.0,0.0,0.0
363041688.0,322.0,325.0,0.0,1.0
363043344.0,322.0,324.0,0.0,1.0
363045000.0,321.0,324.0,0.0,1.0
363046656.0,320.0,324.0,0.0,1.0
363048312.0,320.0,323.0,0.0,1.0
363049968.0,321.0,322.0,0.0,1.0
363051628.0,322.0,320.0,0.0,1.0
363053284.0,323.0,321.0,0.0,1.0
363054940.0,323.0,322.0,0.0,1.0
363056596.0,322.0,322.0,0.0,1.0
363058252.0,323.0,323.0,0.0,1.0
363059908.0,324.0,324.0,0.0,1.0
363061564.0,323.0,324.0,0.0,1.0
363063224.0,322.0,326.0,0.0,1.0
363064880.0,320.0,325.0,0.0,1.0
363066536.0,320.0,324.0,0.0,1.0
363068192.0,320.0,322.0,0.0,1.0
363069848.0,321.0,322.0,0.0,1.0
363071512.0,322.0,321.0,0.0,1.0
363073160.0,322.0,320.0,0.0,1.0
363074816.0,323.0,322.0,0.0,1.0
363076476.0,323.0,321.0,0.0,1.0
363078132.0,323.0,323.0,0.0,1.0
363079788.0,324.0,324.0,0.0,1.0
363081444.0,323.0,324.0,0.0,1.0
363083100.0,321.0,324.0,0.0,1.0
363084756.0,322.0,326.0,0.0,1.0
363086412.0,323.0,326.0,0.0,1.0
363088068.0,321.0,323.0,0.0,1.0
363089728.0,320.0,322.0,0.0,1.0
363091384.0,321.0,321.0,0.0,1.0
363093040.0,323.0,320.0,0.0,1.0
363094696.0,323.0,321.0,0.0,1.0
363096352.0,324.0,323.0,0.0,1.0
363098012.0,323.0,323.0,0.0,1.0
363099668.0,323.0,325.0,0.0,1.0
363101324.0,322.0,326.0,0.0,1.0
363102980.0,325.0,328.0,0.0,1.0
363104636.0,322.0,327.0,0.0,1.0
363106292.0,320.0,323.0,0.0,1.0
363107948.0,320.0,322.0,0.0,1.0
363109604.0,322.0,322.0,0.0,1.0
363111264.0,322.0,321.0,0.0,1.0
363112920.0,322.0,321.0,0.0,1.0
363114576.0,322.0,318.0,0.0,1.0
363116232.0,322.0,320.0,0.0,1.0
363117888.0,322.0,323.0,0.0,1.0
363119544.0,323.0,324.0,0.0,1.0
363121200.0,324.0,325.0,0.0,1.0
363122856.0,323.0,326.0,0.0,1.0
363124516.0,320.0,326.0,0.0,1.0
363126172.0,320.0,324.0,0.0,1.0
363127836.0,319.0,324.0,0.0,1.0
363129484.0,320.0,324.0,0.0,1.0
363131140.0,322.0,321.0,0.0,1.0
363132800.0,323.0,322.0,0.0,1.0
363134456.0,323.0,321.0,0.0,1.0
363136112.0,324.0,322.0,0.0,1.0
363137768.0,326.0,322.0,0.0,1.0
363139424.0,325.0,322.0,0.0,1.0
363141080.0,323.0,324.0,0.0,1.0
363142736.0,321.0,325.0,0.0,1.0
363144392.0,320.0,325.0,0.0,1.0
363146052.0,320.0,325.0,0.0,1.0
363147708.0,319.0,324.0,0.0,1.0
363149364.0,318.0,323.0,0.0,1.0
363151020.0,322.0,323.0,0.0,1.0
363152676.0,325.0,324.0,0.0,1.0
363154332.0,324.0,321.0,0.0,1.0
363155988.0,323.0,321.0,0.0,1.0
363157648.0,323.0,323.0,0.0,1.0
363159304.0,324.0,324.0,0.0,1.0
363160960.0,325.0,324.0,0.0,1.0
363162616.0,323.0,325.0,0.0,1.0
363164272.0,316.0,325.0,0.0,1.0
363165928.0,319.0,324.0,0.0,1.0
363167584.0,322.0,324.0,0.0,1.0
363169240.0,324.0,325.0,0.0,1.0
363170900.0,322.0,322.0,0.0,1.0
363172556.0,324.0,320.0,0.0,1.0
363174212.0,323.0,320.0,0.0,1.0
363175868.0,323.0,321.0,0.0,1.0
363177524.0,318.0,323.0,0.0,1.0
363179180.0,326.0,324.0,0.0,1.0
363180840.0,323.0,324.0,0.0,1.0
363182496.0,330.0,325.0,0.0,1.0
363184156.0,322.0,325.0,0.0,1.0
363185808.0,317.0,325.0,0.0,1.0
363187464.0,313.0,322.0,0.0,1.0
363189120.0,310.0,322.0,0.0,1.0
363190776.0,319.0,322.0,0.0,1.0
363192436.0,327.0,322.0,0.0,1.0
363194088.0,324.0,321.0,0.0,1.0
363195748.0,322.0,321.0,0.0,1.0
363197404.0,325.0,322.0,0.0,1.0
363199060.0,326.0,323.0,0.0,1.0
363200716.0,325.0,324.0,0.0,1.0
363202372.0,327.0,328.0,0.0,1.0
363204028.0,322.0,326.0,0.0,1.0
363205688.0,320.0,325.0,0.0,1.0
363207344.0,320.0,324.0,0.0,1.0
363209000.0,319.0,322.0,0.0,1.0
363210656.0,326.0,322.0,0.0,1.0
363212312.0,326.0,321.0,0.0,1.0
363213968.0,323.0,321.0,0.0,1.0
363215624.0,321.0,321.0,0.0,1.0
363217284.0,322.0,323.0,0.0,1.0
363218940.0,325.0,326.0,0.0,1.0
363220596.0,326.0,323.0,0.0,1.0
363222252.0,327.0,326.0,0.0,1.0
363223908.0,323.0,326.0,0.0,1.0
363225564.0,319.0,324.0,0.0,1.0
363227224.0,319.0,323.0,0.0,0.0
363228880.0,319.0,321.0,0.0,0.0
363230536.0,317.0,321.0,0.0,0.0
363232192.0,319.0,321.0,0.0,0.0
363233848.0,321.0,321.0,0.0,0.0
363235504.0,324.0,321.0,0.0,0.0
363237160.0,324.0,322.0,0.0,0.0
363238816.0,324.0,323.0,0.0,0.0
363240476.0,323.0,323.0,0.0,0.0
363242132.0,324.0,323.0,0.0,0.0
363243788.0,321.0,326.0,0.0,0.0
363245444.0,321.0,326.0,0.0,0.0
363247100.0,321.0,325.0,0.0,0.0
363248756.0,321.0,324.0,0.0,0.0
363250416.0,321.0,323.0,0.0,0.0
363252068.0,322.0,322.0,0.0,0.0
363253728.0,322.0,322.0,0.0,0.0
363255384.0,322.0,321.0,0.0,0.0
363257040.0,323.0,321.0,0.0,0.0
363258696.0,324.0,323.0,0.0,0.0
363260352.0,323.0,323.0,0.0,0.0
363262008.0,321.0,325.0,0.0,0.0
363263668.0,322.0,325.0,0.0,0.0
363265324.0,322.0,325.0,0.0,0.0
363266980.0,321.0,324.0,0.0,0.0
363268636.0,322.0,326.0,0.0,0.0
363270292.0,322.0,323.0,0.0,0.0
363271948.0,322.0,322.0,0.0,0.0
363273604.0,322.0,321.0,0.0,0.0
363275264.0,321.0,321.0,0.0,0.0
363276920.0,322.0,321.0,0.0,0.0
363278576.0,322.0,319.0,0.0,0.0
363280232.0,322.0,323.0,0.0,0.0
363281888.0,323.0,325.0,0.0,0.0
363283544.0,323.0,325.0,0.0,0.0
363285200.0,324.0,326.0,0.0,0.0
363286860.0,322.0,326.0,0.0,0.0
363288516.0,320.0,324.0,0.0,0.0
363290172.0,322.0,323.0,0.0,0.0
363291828.0,322.0,321.0,0.0,0.0
363293484.0,322.0,321.0,0.0,0.0
363295140.0,320.0,321.0,0.0,0.0
363296796.0,322.0,321.0,0.0,0.0
363298456.0,323.0,323.0,0.0,0.0
363300112.0,323.0,324.0,0.0,0.0
363301768.0,323.0,323.0,0.0,0.0
363303424.0,322.0,324.0,0.0,0.0
363305080.0,322.0,325.0,0.0,0.0
363306736.0,323.0,325.0,0.0,0.0
363308392.0,320.0,324.0,0.0,0.0
363310052.0,320.0,323.0,0.0,0.0
363311708.0,319.0,319.0,0.0,0.0
363313364.0,321.0,320.0,0.0,0.0
363315020.0,323.0,321.0,0.0,0.0
363316676.0,325.0,322.0,0.0,0.0
363318332.0,323.0,322.0,0.0,0.0
363319988.0,325.0,323.0,0.0,0.0
363321648.0,323.0,325.0,0.0,0.0
363323304.0,322.0,324.0,0.0,0.0
363324960.0,320.0,327.0,0.0,0.0
363326616.0,321.0,327.0,0.0,0.0
363328272.0,321.0,325.0,0.0,0.0
363329928.0,320.0,323.0,0.0,0.0
363331592.0,321.0,322.0,0.0,0.0
363333240.0,322.0,322.0,0.0,0.0
363334896.0,328.0,324.0,0.0,0.0
363336556.0,327.0,321.0,0.0,0.0
363338212.0,325.0,321.0,0.0,0.0
363339868.0,326.0,323.0,1.0,0.0
363341524.0,318.0,324.0,1.0,0.0
363343180.0,319.0,325.0,1.0,0.0
363344836.0,321.0,323.0,1.0,0.0
363346496.0,320.0,324.0,1.0,0.0
363348152.0,321.0,324.0,1.0,0.0
363349808.0,320.0,323.0,1.0,0.0
363351464.0,321.0,324.0,1.0,0.0
363353120.0,321.0,322.0,1.0,0.0
363354776.0,322.0,320.0,1.0,0.0
363356432.0,325.0,320.0,1.0,0.0
363358088.0,324.0,322.0,1.0,0.0
363359748.0,324.0,324.0,1.0,0.0
363361404.0,323.0,324.0,1.0,0.0
363363060.0,325.0,325.0,1.0,0.0
363364716.0,321.0,325.0,1.0,0.0
363366372.0,320.0,326.0,1.0,0.0
363368028.0,319.0,323.0,1.0,0.0
363369684.0,321.0,322.0,1.0,0.0
363371344.0,320.0,322.0,1.0,0.0
363373000.0,321.0,322.0,1.0,0.0
363374656.0,322.0,322.0,1.0,0.0
363376312.0,321.0,322.0,1.0,0.0
363377968.0,323.0,320.0,1.0,0.0
363379624.0,324.0,322.0,1.0,0.0
363381280.0,324.0,323.0,1.0,0.0
363382940.0,321.0,325.0,1.0,0.0
363384596.0,322.0,326.0,1.0,0.0
363386252.0,322.0,325.0,1.0,0.0
363387916.0,322.0,324.0,1.0,0.0
363389564.0,321.0,324.0,1.0,0.0
363391220.0,322.0,324.0,1.0,0.0
363392880.0,322.0,322.0,1.0,0.0
363394536.0,320.0,319.0,1.0,0.0
363396192.0,322.0,321.0,1.0,0.0
363397848.0,322.0,322.0,1.0,0.0
363399504.0,323.0,323.0,1.0,0.0
363401160.0,325.0,326.0,1.0,0.0
363402816.0,326.0,326.0,1.0,0.0
363404472.0,321.0,325.0,1.0,0.0
363406132.0,321.0,324.0,1.0,0.0
363407788.0,321.0,325.0,1.0,0.0
363409444.0,321.0,324.0,1.0,0.0
363411100.0,321.0,323.0,1.0,0.0
363412756.0,321.0,321.0,1.0,0.0
363414412.0,324.0,320.0,1.0,0.0
363416072.0,322.0,320.0,1.0,0.0
363417728.0,322.0,322.0,1.0,0.0
363419384.0,326.0,324.0,1.0,0.0
363421040.0,325.0,324.0,1.0,0.0
363422696.0,321.0,324.0,1.0,0.0
363424352.0,323.0,325.0,1.0,0.0
363426008.0,320.0,324.0,1.0,0.0
363427664.0,321.0,323.0,1.0,0.0
363429324.0,322.0,323.0,1.0,0.0
363430980.0,320.0,322.0,1.0,0.0
363432636.0,320.0,321.0,1.0,0.0
363434292.0,321.0,322.0,1.0,0.0
363435948.0,322.0,321.0,1.0,0.0
363437604.0,323.0,322.0,1.0,0.0
363439264.0,322.0,323.0,1.0,0.0
363440916.0,323.0,323.0,1.0,0.0
363442576.0,324.0,324.0,1.0,0.0
363444240.0,323.0,326.0,1.0,0.0
363445888.0,320.0,325.0,1.0,0.0
363447544.0,319.0,324.0,1.0,0.0
363449200.0,320.0,324.0,1.0,0.0
363450856.0,323.0,326.0,1.0,0.0
363452516.0,327.0,322.0,1.0,0.0
363454172.0,320.0,320.0,1.0,0.0
363455828.0,322.0,321.0,1.0,0.0
363457484.0,324.0,321.0,1.0,0.0
363459140.0,322.0,322.0,1.0,0.0
363460796.0,317.0,323.0,1.0,0.0
363462456.0,321.0,324.0,1.0,0.0
363464112.0,322.0,324.0,1.0,0.0
363465768.0,322.0,324.0,1.0,0.0
363467424.0,324.0,326.0,1.0,0.0
363469080.0,326.0,328.0,1.0,0.0
363470736.0,323.0,323.0,1.0,0.0
363472392.0,324.0,321.0,1.0,0.0
363474052.0,325.0,322.0,1.0,0.0
363475708.0,318.0,320.0,1.0,0.0
363477364.0,326.0,321.0,0.0,0.0
363479020.0,324.0,322.0,0.0,0.0
363480676.0,322.0,323.0,0.0,0.0
363482332.0,315.0,324.0,0.0,0.0
363483988.0,321.0,325.0,0.0,0.0
363485644.0,325.0,327.0,0.0,0.0
363487300.0,323.0,324.0,0.0,0.0
363488960.0,322.0,323.0,0.0,0.0
363490616.0,315.0,323.0,0.0,0.0
363492272.0,321.0,322.0,0.0,0.0
363493928.0,322.0,322.0,0.0,0.0
363495584.0,322.0,320.0,0.0,0.0
363497240.0,326.0,321.0,0.0,0.0
363498900.0,325.0,322.0,0.0,0.0
363500564.0,323.0,323.0,0.0,0.0
363502212.0,324.0,322.0,0.0,0.0
363503868.0,323.0,324.0,0.0,0.0
363505524.0,321.0,325.0,0.0,0.0
363507180.0,322.0,325.0,0.0,0.0
363508836.0,318.0,324.0,0.0,0.0
363510496.0,320.0,324.0,0.0,0.0
363512152.0,320.0,322.0,0.0,0.0
363513808.0,321.0,321.0,0.0,0.0
363515464.0,323.0,322.0,0.0,0.0
363517120.0,324.0,321.0,0.0,0.0
363518776.0,327.0,323.0,0.0,0.0
363520432.0,323.0,324.0,0.0,0.0
363522088.0,321.0,324.0,0.0,0.0
363523744.0,321.0,325.0,0.0,0.0
363525404.0,323.0,324.0,0.0,0.0
363527060.0,323.0,324.0,0.0,0.0
363528716.0,320.0,324.0,0.0,0.0
363530372.0,319.0,323.0,0.0,0.0
363532028.0,322.0,322.0,0.0,0.0
363533684.0,322.0,322.0,0.0,0.0
363535344.0,323.0,324.0,0.0,0.0
363537000.0,324.0,321.0,0.0,0.0
363538656.0,324.0,321.0,0.0,0.0
363540312.0,323.0,322.0,0.0,0.0
363541968.0,319.0,324.0,0.0,0.0
363543624.0,322.0,326.0,0.0,0.0
363545280.0,324.0,326.0,0.0,0.0
363546940.0,322.0,324.0,0.0,0.0
363548596.0,320.0,323.0,0.0,0.0
363550252.0,318.0,323.0,0.0,0.0
363551908.0,319.0,322.0,0.0,0.0
363553564.0,320.0,320.0,0.0,0.0
363555220.0,321.0,320.0,0.0,0.0
363556884.0,322.0,320.0,0.0,0.0
363558536.0,323.0,321.0,0.0,0.0
363560192.0,324.0,323.0,0.0,0.0
363561848.0,324.0,324.0,0.0,0.0
363563504.0,324.0,325.0,0.0,0.0
363565160.0,323.0,325.0,0.0,0.0
363566816.0,320.0,326.0,0.0,0.0
363568472.0,320.0,325.0,0.0,0.0
363570132.0,321.0,324.0,0.0,0.0
363571788.0,321.0,322.0,0.0,0.0
363573444.0,322.0,321.0,0.0,0.0
363575100.0,323.0,322.0,0.0,0.0
363576756.0,323.0,321.0,0.0,0.0
363578412.0,322.0,321.0,0.0,0.0
363580072.0,322.0,321.0,0.0,0.0
363581724.0,324.0,324.0,0.0,0.0
363583384.0,322.0,325.0,0.0,0.0
363585040.0,324.0,327.0,0.0,0.0
363586696.0,322.0,327.0,0.0,0.0
363588352.0,323.0,325.0,0.0,0.0
363590008.0,320.0,324.0,0.0,0.0
363591664.0,321.0,324.0,0.0,0.0
363593320.0,321.0,321.0,0.0,0.0
363594976.0,321.0,322.0,0.0,0.0
363596636.0,322.0,321.0,0.0,0.0
363598292.0,323.0,321.0,0.0,0.0
363599948.0,327.0,321.0,0.0,0.0
363601604.0,328.0,325.0,0.0,0.0
363603264.0,324.0,327.0,0.0,0.0
363604916.0,318.0,325.0,0.0,0.0
363606576.0,318.0,322.0,0.0,0.0
363608232.0,320.0,324.0,0.0,0.0
363609888.0,321.0,324.0,0.0,0.0
363611544.0,324.0,322.0,0.0,0.0
363613208.0,321.0,322.0,0.0,0.0
363614860.0,322.0,322.0,0.0,0.0
363616516.0,319.0,321.0,0.0,0.0
363618168.0,323.0,321.0,0.0,0.0
363619828.0,325.0,321.0,0.0,0.0
363621484.0,326.0,323.0,0.0,0.0
363623140.0,324.0,324.0,0.0,0.0
363624796.0,322.0,325.0,0.0,0.0
363626452.0,322.0,325.0,0.0,0.0
363628112.0,320.0,325.0,0.0,0.0
363629768.0,319.0,324.0,0.0,0.0
363631424.0,321.0,323.0,0.0,0.0
363633080.0,320.0,322.0,0.0,0.0
363634736.0,322.0,321.0,0.0,0.0
363636392.0,323.0,322.0,0.0,0.0
363638048.0,324.0,322.0,0.0,0.0
363639704.0,323.0,322.0,0.0,0.0
363641364.0,322.0,322.0,0.0,0.0
363643020.0,324.0,324.0,0.0,0.0
363644676.0,323.0,325.0,0.0,0.0
363646332.0,321.0,325.0,0.0,0.0
363647988.0,322.0,325.0,0.0,0.0
363649644.0,322.0,324.0,0.0,0.0
363651300.0,323.0,326.0,0.0,0.0
363652960.0,323.0,323.0,0.0,0.0
363654616.0,321.0,322.0,0.0,0.0
363656272.0,320.0,320.0,0.0,0.0
363657928.0,322.0,321.0,0.0,0.0
363659584.0,321.0,322.0,0.0,0.0
363661240.0,324.0,322.0,0.0,0.0
363662900.0,324.0,324.0,0.0,0.0
363664556.0,322.0,323.0,0.0,0.0
363666212.0,321.0,325.0,0.0,0.0
363667868.0,323.0,326.0,0.0,0.0
363669532.0,323.0,325.0,1.0,0.0
363671180.0,321.0,324.0,1.0,0.0
363672836.0,321.0,322.0,1.0,0.0
363674492.0,321.0,321.0,1.0,0.0
363676148.0,322.0,321.0,1.0,0.0
363677808.0,322.0,321.0,1.0,0.0
363679464.0,323.0,322.0,1.0,0.0
363681120.0,323.0,322.0,1.0,0.0
363682776.0,323.0,324.0,1.0,0.0
363684432.0,323.0,325.0,1.0,0.0
363686088.0,322.0,324.0,1.0,0.0
363687748.0,320.0,324.0,1.0,0.0
363689404.0,319.0,325.0,1.0,0.0
363691060.0,320.0,324.0,1.0,0.0
363692716.0,321.0,323.0,1.0,0.0
363694372.0,321.0,322.0,1.0,0.0
363696028.0,322.0,321.0,1.0,0.0
363697684.0,324.0,320.0,1.0,0.0
363699340.0,325.0,320.0,1.0,0.0
363701000.0,324.0,322.0,1.0,0.0
363702656.0,324.0,324.0,1.0,0.0
363704312.0,322.0,325.0,1.0,0.0
363705968.0,320.0,325.0,1.0,0.0
363707624.0,321.0,325.0,1.0,0.0
363709280.0,320.0,325.0,1.0,0.0
363710936.0,323.0,324.0,1.0,0.0
363712596.0,324.0,321.0,1.0,0.0
363714252.0,321.0,322.0,1.0,0.0
363715908.0,321.0,321.0,1.0,0.0
363717564.0,325.0,324.0,1.0,0.0
363719220.0,326.0,325.0,1.0,0.0
363720876.0,322.0,322.0,1.0,0.0
363722532.0,317.0,324.0,1.0,0.0
363724192.0,322.0,325.0,1.0,0.0
363725852.0,323.0,324.0,1.0,0.0
363727504.0,324.0,325.0,1.0,0.0
363729160.0,321.0,324.0,1.0,0.0
363730816.0,320.0,324.0,1.0,0.0
363732472.0,319.0,322.0,1.0,0.0
363734132.0,322.0,322.0,1.0,0.0
363735788.0,323.0,325.0,1.0,0.0
363737444.0,321.0,321.0,1.0,0.0
363739100.0,323.0,321.0,1.0,0.0
363740756.0,324.0,321.0,1.0,0.0
363742412.0,326.0,323.0,1.0,0.0
363744068.0,324.0,324.0,1.0,0.0
363745728.0,322.0,324.0,1.0,0.0
363747380.0,322.0,324.0,1.0,0.0
363749040.0,320.0,325.0,1.0,0.0
363750696.0,320.0,326.0,1.0,0.0
363752352.0,320.0,323.0,1.0,0.0
363754008.0,320.0,322.0,1.0,0.0
363755664.0,320.0,320.0,1.0,0.0
363757320.0,321.0,321.0,1.0,0.0
363758980.0,323.0,322.0,1.0,0.0
363760636.0,324.0,321.0,1.0,0.0
363762292.0,324.0,324.0,1.0,0.0
363763948.0,326.0,327.0,1.0,0.0
363765604.0,327.0,324.0,1.0,0.0
363767260.0,325.0,327.0,1.0,0.0
363768916.0,318.0,328.0,1.0,0.0
363770576.0,318.0,324.0,1.0,0.0
363772232.0,319.0,323.0,1.0,0.0
363773888.0,321.0,322.0,1.0,0.0
363775544.0,322.0,321.0,1.0,0.0
363777200.0,321.0,320.0,1.0,0.0
363778856.0,325.0,320.0,1.0,0.0
363780512.0,324.0,322.0,1.0,0.0
363782172.0,325.0,323.0,1.0,0.0
363783828.0,328.0,323.0,1.0,0.0
363785484.0,326.0,326.0,1.0,0.0
363787140.0,319.0,326.0,1.0,0.0
363788796.0,319.0,325.0,1.0,0.0
363790452.0,320.0,324.0,1.0,0.0
363792108.0,320.0,323.0,1.0,0.0
363793768.0,319.0,322.0,1.0,0.0
363795424.0,320.0,322.0,1.0,0.0
363797080.0,322.0,321.0,1.0,0.0
363798736.0,324.0,321.0,1.0,0.0
363800392.0,325.0,321.0,1.0,0.0
363802048.0,324.0,323.0,1.0,0.0
363803708.0,323.0,323.0,1.0,0.0
363805360.0,321.0,325.0,1.0,0.0
363807020.0,321.0,325.0,1.0,0.0
363808676.0,321.0,325.0,1.0,0.0
363810332.0,321.0,325.0,1.0,0.0
363811988.0,321.0,323.0,1.0,0.0
363813644.0,320.0,323.0,1.0,0.0
363815300.0,321.0,322.0,1.0,0.0
363816960.0,323.0,321.0,1.0,0.0
363818616.0,323.0,322.0,1.0,0.0
363820272.0,324.0,322.0,1.0,0.0
363821928.0,322.0,323.0,0.0,0.0
363823584.0,323.0,324.0,0.0,0.0
363825240.0,322.0,325.0,0.0,0.0
363826896.0,322.0,325.0,0.0,0.0
363828552.0,322.0,325.0,0.0,0.0
363830212.0,321.0,324.0,0.0,0.0
363831868.0,319.0,323.0,0.0,0.0
363833524.0,321.0,324.0,0.0,0.0
363835180.0,324.0,324.0,0.0,0.0
363836836.0,322.0,322.0,0.0,0.0
363838492.0,322.0,322.0,0.0,0.0
363840148.0,323.0,321.0,0.0,0.0
363841808.0,326.0,321.0,0.0,0.0
363843464.0,323.0,323.0,0.0,0.0
363845120.0,323.0,324.0,0.0,0.0
363846776.0,322.0,325.0,0.0,0.0
363848432.0,320.0,324.0,0.0,0.0
363850088.0,317.0,324.0,0.0,0.0
363851748.0,322.0,327.0,0.0,0.0
363853404.0,320.0,324.0,0.0,0.0
363855060.0,322.0,321.0,0.0,0.0
363856716.0,326.0,320.0,0.0,0.0
363858372.0,322.0,321.0,0.0,0.0
363860028.0,323.0,322.0,0.0,0.0
363861684.0,324.0,323.0,0.0,0.0
363863340.0,323.0,323.0,0.0,0.0
363865000.0,322.0,325.0,0.0,0.0
363866656.0,322.0,324.0,0.0,0.0
363868312.0,323.0,324.0,0.0,0.0
363869968.0,320.0,324.0,0.0,0.0
363871624.0,319.0,324.0,0.0,0.0
363873288.0,320.0,322.0,0.0,0.0
363874936.0,321.0,323.0,0.0,0.0
363876592.0,323.0,321.0,0.0,0.0
363878252.0,325.0,321.0,0.0,0.0
363879908.0,322.0,320.0,0.0,0.0
363881564.0,321.0,321.0,0.0,0.0
363883220.0,321.0,322.0,0.0,0.0
363884876.0,323.0,324.0,0.0,0.0
363886532.0,323.0,325.0,0.0,0.0
363888188.0,322.0,325.0,0.0,0.0
363889844.0,320.0,325.0,0.0,0.0
363891504.0,320.0,325.0,0.0,0.0
363893160.0,322.0,324.0,0.0,0.0
363894816.0,323.0,322.0,0.0,0.0
363896472.0,322.0,320.0,0.0,0.0
363898128.0,320.0,321.0,0.0,0.0
363899784.0,322.0,321.0,0.0,0.0
363901444.0,325.0,324.0,0.0,0.0
363903100.0,325.0,324.0,0.0,0.0
363904756.0,323.0,324.0,0.0,0.0
363906412.0,323.0,324.0,0.0,0.0
363908068.0,322.0,325.0,0.0,0.0
363909728.0,322.0,324.0,0.0,0.0
363911384.0,320.0,324.0,0.0,0.0
363913040.0,320.0,323.0,0.0,0.0
363914696.0,321.0,322.0,0.0,0.0
363916352.0,320.0,322.0,0.0,0.0
363918008.0,323.0,323.0,0.0,0.0
363919664.0,325.0,322.0,0.0,0.0
363921320.0,322.0,321.0,0.0,0.0
363922980.0,323.0,322.0,0.0,0.0
363924636.0,324.0,323.0,0.0,0.0
363926292.0,322.0,324.0,0.0,0.0
363927948.0,321.0,325.0,0.0,0.0
363929612.0,321.0,324.0,0.0,0.0
363931260.0,320.0,324.0,0.0,0.0
363932916.0,320.0,324.0,0.0,0.0
363934576.0,321.0,323.0,0.0,0.0
363936232.0,320.0,322.0,0.0,0.0
363937888.0,322.0,321.0,0.0,0.0
363939544.0,324.0,321.0,0.0,0.0
363941200.0,323.0,321.0,0.0,0.0
363942856.0,324.0,323.0,0.0,0.0
363944516.0,325.0,324.0,0.0,0.0
363946172.0,323.0,323.0,0.0,0.0
363947828.0,322.0,325.0,0.0,0.0
363949484.0,322.0,325.0,0.0,0.0
363951140.0,321.0,325.0,0.0,0.0
363952796.0,320.0,324.0,0.0,0.0
363954452.0,320.0,322.0,0.0,0.0
363956108.0,321.0,321.0,0.0,0.0
363957764.0,322.0,320.0,0.0,0.0
363959420.0,322.0,320.0,0.0,0.0
363961080.0,321.0,321.0,0.0,0.0
363962736.0,323.0,323.0,0.0,0.0
363964392.0,323.0,324.0,0.0,0.0
363966048.0,324.0,324.0,0.0,0.0
363967704.0,324.0,328.0,0.0,0.0
363969360.0,324.0,327.0,0.0,0.0
363971016.0,321.0,324.0,0.0,0.0
363972676.0,322.0,324.0,0.0,0.0
363974332.0,322.0,322.0,0.0,0.0
363975988.0,319.0,321.0,0.0,0.0
363977644.0,320.0,321.0,0.0,0.0
363979300.0,320.0,321.0,0.0,0.0
363980956.0,322.0,322.0,0.0,0.0
363982616.0,323.0,322.0,0.0,0.0
363984272.0,324.0,325.0,0.0,0.0
363985936.0,326.0,326.0,0.0,0.0
363987584.0,324.0,324.0,0.0,0.0
363989240.0,323.0,325.0,0.0,0.0
363990896.0,321.0,324.0,0.0,0.0
363992556.0,319.0,323.0,0.0,0.0
363994212.0,319.0,323.0,0.0,0.0
363995868.0,321.0,322.0,0.0,0.0
363997524.0,322.0,321.0,0.0,0.0
363999180.0,322.0,321.0,0.0,0.0
364000836.0,324.0,321.0,0.0,0.0
364002492.0,325.0,322.0,0.0,0.0
364004152.0,324.0,323.0,0.0,0.0
364005808.0,322.0,325.0,0.0,0.0
364007464.0,320.0,325.0,0.0,0.0
364009120.0,322.0,324.0,0.0,0.0
364010776.0,320.0,323.0,0.0,0.0
364012432.0,321.0,323.0,0.0,0.0
364014088.0,319.0,322.0,0.0,0.0
364015744.0,320.0,322.0,0.0,0.0
364017404.0,324.0,325.0,0.0,0.0
364019056.0,324.0,323.0,0.0,0.0
364020716.0,324.0,322.0,0.0,0.0
364022372.0,324.0,322.0,0.0,0.0
364024028.0,324.0,322.0,0.0,0.0
364025684.0,324.0,324.0,0.0,0.0
364027340.0,323.0,325.0,0.0,0.0
364028996.0,321.0,325.0,0.0,0.0
364030656.0,321.0,324.0,0.0,0.0
364032312.0,320.0,323.0,1.0,0.0
364033968.0,320.0,324.0,1.0,0.0
364035624.0,325.0,324.0,1.0,0.0
364037280.0,320.0,321.0,1.0,0.0
364038936.0,322.0,321.0,1.0,0.0
364040592.0,322.0,322.0,1.0,0.0
364042256.0,322.0,322.0,1.0,0.0
364043908.0,324.0,323.0,1.0,0.0
364045564.0,326.0,324.0,1.0,0.0
364047220.0,323.0,324.0,1.0,0.0
364048876.0,322.0,322.0,1.0,0.0
364050532.0,320.0,325.0,1.0,0.0
364052192.0,319.0,324.0,1.0,0.0
364053848.0,320.0,323.0,1.0,0.0
364055504.0,320.0,322.0,1.0,0.0
364057160.0,320.0,322.0,1.0,0.0
364058816.0,322.0,321.0,1.0,0.0
364060472.0,323.0,322.0,1.0,0.0
364062128.0,323.0,321.0,1.0,0.0
364063788.0,324.0,323.0,1.0,0.0
364065440.0,322.0,324.0,1.0,0.0
364067100.0,324.0,324.0,1.0,0.0
364068756.0,322.0,325.0,1.0,0.0
364070412.0,320.0,324.0,1.0,0.0
364072068.0,320.0,324.0,1.0,0.0
364073724.0,320.0,323.0,1.0,0.0
364075380.0,321.0,322.0,1.0,0.0
364077040.0,323.0,322.0,1.0,0.0
364078696.0,324.0,322.0,1.0,0.0
364080352.0,321.0,320.0,1.0,0.0
364082008.0,324.0,322.0,1.0,0.0
364083664.0,321.0,324.0,1.0,0.0
364085320.0,323.0,326.0,1.0,0.0
364086980.0,325.0,326.0,1.0,0.0
364088632.0,324.0,324.0,1.0,0.0
364090292.0,323.0,324.0,1.0,0.0
364091948.0,322.0,324.0,1.0,0.0
364093604.0,321.0,323.0,1.0,0.0
364095260.0,321.0,322.0,1.0,0.0
364096916.0,320.0,322.0,1.0,0.0
364098580.0,319.0,321.0,1.0,0.0
364100228.0,322.0,322.0,1.0,0.0
364101888.0,327.0,324.0,1.0,0.0
364103544.0,322.0,322.0,1.0,0.0
364105200.0,322.0,323.0,0.0,0.0
364106856.0,326.0,325.0,0.0,0.0
364108512.0,322.0,325.0,0.0,0.0
364110168.0,321.0,325.0,0.0,0.0
364111828.0,322.0,324.0,0.0,0.0
364113484.0,320.0,323.0,0.0,0.0
364115140.0,324.0,323.0,0.0,0.0
364116796.0,321.0,321.0,0.0,0.0
364118452.0,324.0,320.0,0.0,0.0
364120108.0,318.0,320.0,0.0,0.0
364121764.0,314.0,321.0,0.0,0.0
364123424.0,322.0,322.0,0.0,0.0
364125080.0,325.0,324.0,0.0,0.0
364126736.0,326.0,324.0,0.0,0.0
364128392.0,325.0,325.0,0.0,0.0
364130048.0,322.0,326.0,0.0,0.0
364131704.0,319.0,325.0,0.0,0.0
364133364.0,318.0,323.0,0.0,0.0
364135016.0,322.0,323.0,0.0,0.0
364136676.0,316.0,322.0,0.0,0.0
364138332.0,322.0,322.0,0.0,0.0
364139988.0,322.0,321.0,0.0,0.0
364141644.0,324.0,322.0,0.0,0.0
364143300.0,325.0,322.0,0.0,0.0
364144956.0,326.0,323.0,0.0,0.0
364146616.0,324.0,324.0,0.0,0.0
364148272.0,323.0,324.0,0.0,0.0
364149928.0,322.0,326.0,0.0,0.0
364151584.0,324.0,328.0,0.0,0.0
364153240.0,321.0,324.0,0.0,0.0
364154904.0,319.0,324.0,0.0,0.0
364156556.0,321.0,324.0,0.0,0.0
364158212.0,322.0,323.0,0.0,0.0
364159868.0,322.0,316.0,0.0,0.0
364161524.0,322.0,321.0,0.0,0.0
364163180.0,322.0,322.0,0.0,0.0
364164836.0,324.0,322.0,0.0,0.0
364166492.0,323.0,323.0,0.0,0.0
364168148.0,323.0,324.0,0.0,0.0
364169808.0,321.0,325.0,0.0,0.0
364171464.0,322.0,326.0,0.0,0.0
364173120.0,320.0,324.0,0.0,0.0
364174776.0,320.0,323.0,0.0,0.0
364176432.0,321.0,322.0,0.0,0.0
364178088.0,321.0,322.0,0.0,0.0
364179744.0,321.0,321.0,0.0,0.0
364181400.0,322.0,322.0,0.0,0.0
364183060.0,324.0,322.0,0.0,0.0
364184716.0,325.0,322.0,0.0,0.0
364186372.0,323.0,323.0,0.0,0.0
364188028.0,322.0,324.0,0.0,0.0
364189684.0,321.0,325.0,0.0,0.0
364191340.0,321.0,325.0,0.0,0.0
364192996.0,321.0,324.0,0.0,0.0
364194656.0,320.0,323.0,0.0,0.0
364196312.0,321.0,322.0,0.0,0.0
364197968.0,322.0,321.0,0.0,0.0
364199624.0,322.0,321.0,0.0,0.0
364201280.0,323.0,321.0,0.0,0.0
364202936.0,323.0,322.0,0.0,0.0
364204596.0,327.0,326.0,0.0,0.0
364206252.0,327.0,326.0,0.0,0.0
364207908.0,323.0,324.0,0.0,0.0
364209564.0,322.0,324.0,0.0,0.0
364211228.0,318.0,324.0,0.0,0.0
364212876.0,318.0,325.0,0.0,0.0
364214532.0,321.0,323.0,0.0,0.0
364216188.0,321.0,323.0,0.0,0.0
364217848.0,324.0,325.0,0.0,0.0
364219504.0,324.0,323.0,0.0,0.0
364221160.0,324.0,321.0,0.0,0.0
364222816.0,325.0,321.0,0.0,0.0
364224472.0,323.0,322.0,0.0,0.0
364226128.0,322.0,324.0,0.0,0.0
364227784.0,322.0,325.0,0.0,0.0
364229444.0,321.0,324.0,0.0,0.0
364231100.0,322.0,324.0,0.0,0.0
364232756.0,321.0,323.0,0.0,0.0
364234412.0,322.0,325.0,0.0,0.0
364236068.0,321.0,323.0,0.0,0.0
364237724.0,320.0,322.0,0.0,0.0
364239380.0,322.0,323.0,0.0,0.0
364241036.0,324.0,322.0,0.0,0.0
364242696.0,323.0,321.0,0.0,0.0
364244352.0,324.0,321.0,0.0,0.0
364246008.0,321.0,322.0,0.0,0.0
364247664.0,322.0,324.0,0.0,0.0
364249320.0,321.0,325.0,0.0,0.0
364250976.0,322.0,326.0,0.0,0.0
364252636.0,320.0,324.0,0.0,0.0
364254292.0,321.0,324.0,0.0,0.0
364255948.0,321.0,324.0,0.0,0.0
364257604.0,320.0,323.0,0.0,0.0
364259260.0,320.0,322.0,0.0,0.0
364260916.0,322.0,321.0,0.0,0.0
364262572.0,325.0,320.0,0.0,0.0
364264232.0,324.0,321.0,0.0,0.0
364265888.0,326.0,321.0,0.0,0.0
364267548.0,324.0,327.0,0.0,0.0
364269200.0,325.0,328.0,0.0,0.0
364270856.0,325.0,328.0,0.0,0.0
364272512.0,321.0,324.0,0.0,0.0
364274168.0,320.0,324.0,0.0,0.0
364275828.0,319.0,323.0,0.0,0.0
364277484.0,319.0,322.0,0.0,0.0
364279140.0,322.0,321.0,0.0,0.0
364280796.0,322.0,322.0,0.0,0.0
364282452.0,323.0,322.0,0.0,0.0
364284108.0,325.0,324.0,0.0,0.0
364285764.0,326.0,325.0,0.0,0.0
364287420.0,323.0,324.0,0.0,0.0
364289076.0,322.0,325.0,0.0,0.0
364290736.0,322.0,325.0,0.0,0.0
364292392.0,320.0,324.0,0.0,0.0
364294048.0,320.0,325.0,0.0,0.0
364295704.0,320.0,323.0,0.0,0.0
364297360.0,321.0,322.0,0.0,0.0
364299016.0,321.0,321.0,0.0,0.0
364300676.0,321.0,320.0,0.0,0.0
364302332.0,323.0,320.0,0.0,0.0
364303988.0,324.0,321.0,0.0,0.0
364305644.0,322.0,323.0,0.0,0.0
364307300.0,322.0,324.0,0.0,0.0
364308956.0,323.0,324.0,0.0,0.0
364310616.0,323.0,325.0,0.0,0.0
364312268.0,321.0,325.0,0.0,0.0
364313928.0,320.0,325.0,0.0,0.0
364315584.0,319.0,324.0,0.0,0.0
364317240.0,321.0,322.0,0.0,0.0
364318896.0,322.0,322.0,0.0,0.0
364320552.0,324.0,320.0,0.0,0.0
364322212.0,323.0,321.0,0.0,0.0
364323868.0,323.0,322.0,0.0,0.0
364325524.0,323.0,323.0,0.0,0.0
364327180.0,325.0,323.0,0.0,0.0
364328836.0,323.0,323.0,0.0,0.0
364330492.0,320.0,324.0,0.0,0.0
364332148.0,321.0,324.0,0.0,0.0
364333808.0,322.0,327.0,0.0,0.0
364335464.0,321.0,326.0,0.0,0.0
364337116.0,320.0,323.0,0.0,0.0
364338776.0,321.0,322.0,0.0,0.0
364340432.0,325.0,320.0,0.0,0.0
364342088.0,324.0,322.0,0.0,0.0
364343744.0,322.0,322.0,0.0,0.0
364345400.0,322.0,322.0,0.0,0.0
364347060.0,323.0,323.0,0.0,0.0
364348712.0,324.0,325.0,0.0,0.0
364350372.0,323.0,326.0,0.0,0.0
364352028.0,323.0,327.0,0.0,0.0
364353684.0,320.0,324.0,0.0,0.0
364355340.0,317.0,323.0,0.0,0.0
364357000.0,320.0,322.0,0.0,0.0
364358652.0,321.0,322.0,0.0,0.0
364360312.0,322.0,321.0,1.0,0.0
364361968.0,322.0,321.0,1.0,0.0
364363624.0,324.0,320.0,1.0,0.0
364365280.0,322.0,322.0,1.0,0.0
364366936.0,324.0,323.0,1.0,0.0
364368592.0,323.0,324.0,1.0,0.0
364370252.0,322.0,326.0,1.0,0.0
364371908.0,321.0,326.0,1.0,0.0
364373564.0,320.0,325.0,1.0,0.0
364375220.0,321.0,322.0,1.0,0.0
364376876.0,322.0,322.0,1.0,0.0
364378532.0,321.0,322.0,1.0,0.0
364380188.0,322.0,321.0,1.0,0.0
364381844.0,322.0,320.0,1.0,0.0
364383504.0,322.0,322.0,1.0,0.0
364385160.0,323.0,322.0,1.0,0.0
364386816.0,323.0,323.0,1.0,0.0
364388472.0,324.0,324.0,1.0,0.0
364390128.0,323.0,325.0,1.0,0.0
364391784.0,322.0,325.0,1.0,0.0
364393444.0,322.0,325.0,1.0,0.0
364395100.0,320.0,324.0,1.0,0.0
364396756.0,319.0,322.0,1.0,0.0
364398412.0,321.0,321.0,1.0,0.0
364400068.0,320.0,321.0,1.0,0.0
364401724.0,325.0,323.0,1.0,0.0
364403380.0,324.0,321.0,1.0,0.0
364405036.0,324.0,323.0,1.0,0.0
364406696.0,324.0,323.0,1.0,0.0
364408352.0,323.0,324.0,1.0,0.0
364410008.0,321.0,324.0,1.0,0.0
364411664.0,321.0,325.0,1.0,0.0
364413320.0,321.0,325.0,1.0,0.0
364414984.0,323.0,324.0,1.0,0.0
364416632.0,322.0,322.0,1.0,0.0
364418292.0,322.0,323.0,1.0,0.0
364419948.0,322.0,320.0,1.0,0.0
364421604.0,321.0,322.0,1.0,0.0
364423260.0,323.0,322.0,1.0,0.0
364424916.0,324.0,321.0,1.0,0.0
364426572.0,323.0,322.0,1.0,0.0
364428232.0,321.0,324.0,1.0,0.0
364429888.0,323.0,324.0,1.0,0.0
364431544.0,323.0,325.0,1.0,0.0
364433200.0,320.0,324.0,1.0,0.0
364434856.0,321.0,325.0,1.0,0.0
364436512.0,321.0,323.0,1.0,0.0
364438168.0,320.0,321.0,1.0,0.0
364439824.0,322.0,322.0,1.0,0.0
364441480.0,323.0,322.0,1.0,0.0
364443140.0,323.0,321.0,1.0,0.0
364444796.0,322.0,322.0,1.0,0.0
364446452.0,323.0,323.0,1.0,0.0
364448108.0,321.0,324.0,1.0,0.0
364449764.0,323.0,325.0,1.0,0.0
364451424.0,324.0,325.0,1.0,0.0
364453080.0,324.0,324.0,1.0,0.0
364454736.0,319.0,323.0,1.0,0.0
364456392.0,320.0,323.0,1.0,0.0
364458048.0,319.0,322.0,1.0,0.0
364459704.0,321.0,322.0,1.0,0.0
364461360.0,319.0,321.0,1.0,0.0
364463016.0,324.0,321.0,1.0,0.0
364464676.0,327.0,322.0,1.0,0.0
364466332.0,325.0,323.0,1.0,0.0
364467988.0,326.0,325.0,1.0,0.0
364469644.0,327.0,325.0,1.0,0.0
364471308.0,327.0,326.0,1.0,0.0
364472956.0,311.0,326.0,1.0,0.0
364474612.0,313.0,324.0,1.0,0.0
364476272.0,320.0,322.0,1.0,0.0
364477928.0,326.0,320.0,1.0,0.0
364479584.0,322.0,321.0,1.0,0.0
364481240.0,319.0,321.0,1.0,0.0
364482896.0,323.0,320.0,1.0,0.0
364484552.0,324.0,324.0,0.0,0.0
364486208.0,326.0,323.0,0.0,0.0
364487864.0,326.0,324.0,0.0,0.0
364489524.0,323.0,324.0,0.0,0.0
364491180.0,323.0,325.0,0.0,0.0
364492836.0,321.0,325.0,0.0,0.0
364494492.0,321.0,325.0,0.0,0.0
364496148.0,322.0,323.0,0.0,0.0
364497804.0,320.0,322.0,0.0,0.0
364499460.0,320.0,321.0,0.0,0.0
364501116.0,320.0,321.0,0.0,0.0
364502776.0,323.0,321.0,0.0,0.0
364504432.0,323.0,322.0,0.0,0.0
364506088.0,324.0,323.0,0.0,0.0
364507744.0,324.0,323.0,0.0,0.0
364509400.0,322.0,325.0,0.0,0.0
364511056.0,321.0,325.0,0.0,0.0
364512712.0,322.0,324.0,0.0,0.0
364514372.0,321.0,323.0,0.0,0.0
364516028.0,320.0,324.0,0.0,0.0
364517684.0,323.0,327.0,0.0,0.0
364519340.0,322.0,323.0,0.0,0.0
364520996.0,322.0,321.0,0.0,0.0
364522652.0,322.0,321.0,0.0,0.0
364524312.0,322.0,321.0,0.0,0.0
364525968.0,324.0,322.0,0.0,0.0
364527632.0,323.0,323.0,0.0,0.0
364529280.0,324.0,323.0,0.0,0.0
364530936.0,319.0,325.0,0.0,0.0
364532592.0,319.0,325.0,0.0,0.0
364534252.0,324.0,327.0,0.0,0.0
364535904.0,325.0,326.0,0.0,0.0
364537564.0,321.0,322.0,0.0,0.0
364539220.0,321.0,321.0,0.0,0.0
364540876.0,322.0,321.0,0.0,0.0
364542532.0,321.0,321.0,0.0,0.0
364544188.0,322.0,322.0,0.0,0.0
364545844.0,323.0,323.0,0.0,0.0
364547504.0,324.0,323.0,0.0,0.0
364549160.0,323.0,324.0,0.0,0.0
364550816.0,324.0,327.0,0.0,0.0
364552472.0,324.0,328.0,0.0,0.0
364554128.0,324.0,327.0,0.0,0.0
364555784.0,319.0,323.0,0.0,0.0
364557440.0,320.0,322.0,0.0,0.0
364559096.0,320.0,321.0,0.0,0.0
364560756.0,320.0,321.0,0.0,0.0
364562412.0,321.0,322.0,0.0,0.0
364564068.0,323.0,321.0,0.0,0.0
364565724.0,324.0,321.0,0.0,0.0
364567380.0,325.0,323.0,0.0,0.0
364569040.0,326.0,324.0,0.0,0.0
364570692.0,324.0,324.0,0.0,0.0
364572352.0,322.0,323.0,0.0,0.0
364574008.0,321.0,325.0,0.0,0.0
364575664.0,318.0,324.0,0.0,0.0
364577320.0,318.0,323.0,0.0,0.0
364578976.0,319.0,323.0,0.0,0.0
364580632.0,321.0,322.0,0.0,0.0
364582292.0,322.0,321.0,0.0,0.0
364583956.0,325.0,324.0,0.0,0.0
364585604.0,325.0,322.0,0.0,0.0
364587260.0,324.0,323.0,0.0,0.0
364588916.0,323.0,324.0,0.0,0.0
364590572.0,322.0,324.0,0.0,0.0
364592228.0,322.0,325.0,0.0,0.0
364593884.0,322.0,325.0,0.0,0.0
364595544.0,321.0,325.0,0.0,0.0
364597200.0,322.0,323.0,0.0,0.0
364598856.0,321.0,322.0,0.0,0.0
364600512.0,323.0,323.0,0.0,0.0
364602168.0,321.0,322.0,0.0,0.0
364603824.0,319.0,322.0,0.0,0.0
364605480.0,322.0,321.0,0.0,0.0
364607140.0,324.0,322.0,0.0,0.0
364608796.0,324.0,323.0,0.0,0.0
364610452.0,323.0,325.0,0.0,0.0
364612108.0,321.0,326.0,0.0,0.0
364613764.0,323.0,323.0,0.0,0.0
364615424.0,322.0,322.0,0.0,0.0
364617080.0,319.0,323.0,0.0,0.0
364618732.0,319.0,322.0,0.0,0.0
364620392.0,322.0,321.0,0.0,0.0
364622048.0,321.0,320.0,0.0,0.0
364623704.0,321.0,321.0,0.0,0.0
364625360.0,324.0,322.0,0.0,0.0
364627016.0,323.0,324.0,0.0,0.0
364628672.0,324.0,324.0,0.0,0.0
364630332.0,323.0,326.0,0.0,0.0
364631988.0,321.0,324.0,0.0,0.0
364633644.0,321.0,323.0,0.0,0.0
364635300.0,322.0,324.0,0.0,0.0
364636956.0,321.0,323.0,0.0,0.0
364638612.0,320.0,323.0,0.0,0.0
364640276.0,322.0,322.0,0.0,0.0
364641928.0,321.0,323.0,0.0,0.0
364643584.0,324.0,324.0,0.0,0.0
364645240.0,325.0,322.0,0.0,0.0
364646896.0,324.0,322.0,0.0,0.0
364648552.0,323.0,322.0,0.0,0.0
364650208.0,324.0,327.0,0.0,0.0
364651868.0,325.0,328.0,0.0,0.0
364653520.0,324.0,328.0,0.0,0.0
364655180.0,320.0,325.0,0.0,0.0
364656836.0,319.0,324.0,0.0,0.0
364658492.0,320.0,323.0,0.0,0.0
364660148.0,322.0,321.0,0.0,0.0
364661804.0,323.0,320.0,0.0,0.0
364663464.0,322.0,322.0,0.0,0.0
364665116.0,323.0,321.0,0.0,0.0
364666776.0,325.0,322.0,0.0,0.0
364668432.0,325.0,326.0,0.0,0.0
364670088.0,323.0,324.0,0.0,0.0
364671744.0,322.0,324.0,0.0,0.0
364673400.0,321.0,324.0,0.0,0.0
364675060.0,320.0,324.0,0.0,0.0
364676716.0,320.0,324.0,0.0,0.0
364678372.0,320.0,324.0,0.0,0.0
364680028.0,320.0,322.0,0.0,0.0
364681684.0,322.0,322.0,0.0,0.0
364683340.0,324.0,322.0,0.0,0.0
364684996.0,324.0,322.0,0.0,0.0
364686656.0,323.0,322.0,0.0,0.0
364688308.0,324.0,323.0,0.0,0.0
364689964.0,322.0,324.0,0.0,0.0
364691624.0,321.0,324.0,0.0,0.0
364693280.0,321.0,326.0,0.0,0.0
364694936.0,322.0,324.0,0.0,0.0
364696600.0,322.0,323.0,0.0,0.0
364698248.0,321.0,324.0,0.0,0.0
364699908.0,321.0,322.0,0.0,0.0
364701564.0,322.0,320.0,0.0,0.0
364703220.0,320.0,322.0,0.0,0.0
364704876.0,321.0,321.0,0.0,0.0
364706532.0,325.0,322.0,0.0,0.0
364708188.0,324.0,323.0,0.0,0.0
364709844.0,324.0,324.0,0.0,0.0
364711500.0,323.0,324.0,0.0,0.0
364713156.0,320.0,325.0,0.0,0.0
364714816.0,320.0,325.0,1.0,0.0
364716472.0,321.0,326.0,1.0,0.0
364718128.0,321.0,324.0,1.0,0.0
364719784.0,321.0,322.0,1.0,0.0
364721440.0,322.0,321.0,1.0,0.0
364723096.0,324.0,322.0,1.0,0.0
364724756.0,323.0,322.0,1.0,0.0
364726412.0,322.0,321.0,1.0,0.0
364728068.0,322.0,322.0,1.0,0.0
364729724.0,323.0,323.0,1.0,0.0
364731380.0,322.0,324.0,1.0,0.0
364733036.0,323.0,325.0,1.0,0.0
364734692.0,324.0,328.0,1.0,0.0
364736352.0,321.0,325.0,1.0,0.0
364738008.0,320.0,323.0,1.0,0.0
364739664.0,321.0,322.0,1.0,0.0
364741320.0,321.0,320.0,1.0,0.0
364742976.0,321.0,320.0,1.0,0.0
364744632.0,323.0,321.0,1.0,0.0
364746288.0,324.0,322.0,1.0,0.0
364747944.0,324.0,322.0,1.0,0.0
364749604.0,323.0,324.0,1.0,0.0
364751260.0,323.0,325.0,1.0,0.0
364752924.0,322.0,324.0,1.0,0.0
364754572.0,321.0,324.0,1.0,0.0
364756228.0,319.0,324.0,1.0,0.0
364757888.0,319.0,324.0,1.0,0.0
364759540.0,319.0,323.0,1.0,0.0
364761196.0,322.0,322.0,1.0,0.0
364762856.0,323.0,320.0,1.0,0.0
364764512.0,325.0,320.0,1.0,0.0
364766168.0,323.0,321.0,1.0,0.0
364767824.0,323.0,322.0,1.0,0.0
364769480.0,323.0,324.0,1.0,0.0
364771140.0,321.0,325.0,1.0,0.0
364772796.0,320.0,325.0,1.0,0.0
364774452.0,321.0,325.0,1.0,0.0
364776108.0,319.0,324.0,1.0,0.0
364777764.0,320.0,323.0,1.0,0.0
364779420.0,321.0,322.0,1.0,0.0
364781080.0,323.0,321.0,1.0,0.0
364782736.0,324.0,321.0,1.0,0.0
364784392.0,326.0,324.0,1.0,0.0
364786048.0,324.0,322.0,1.0,0.0
364787704.0,319.0,322.0,1.0,0.0
364789360.0,319.0,324.0,1.0,0.0
364791016.0,322.0,325.0,1.0,0.0
364792672.0,327.0,323.0,1.0,0.0
364794328.0,327.0,325.0,1.0,0.0
364795984.0,322.0,325.0,1.0,0.0
364797644.0,315.0,324.0,1.0,0.0
364799300.0,318.0,323.0,1.0,0.0
364800956.0,321.0,323.0,0.0,0.0
364802612.0,322.0,321.0,0.0,0.0
364804268.0,324.0,320.0,0.0,0.0
364805924.0,325.0,322.0,0.0,0.0
364807584.0,325.0,322.0,0.0,0.0
364809244.0,324.0,323.0,0.0,0.0
364810896.0,322.0,325.0,0.0,0.0
364812552.0,322.0,324.0,0.0,0.0
364814208.0,318.0,324.0,0.0,0.0
364815864.0,322.0,324.0,0.0,0.0
364817520.0,314.0,324.0,0.0,0.0
364819180.0,318.0,321.0,0.0,0.0
364820836.0,323.0,322.0,0.0,0.0
364822492.0,323.0,321.0,0.0,0.0
364824148.0,324.0,321.0,0.0,0.0
364825804.0,324.0,322.0,0.0,0.0
364827460.0,325.0,322.0,0.0,0.0
364829116.0,326.0,322.0,0.0,0.0
364830776.0,324.0,325.0,0.0,0.0
364832432.0,321.0,325.0,0.0,0.0
364834088.0,323.0,327.0,0.0,0.0
364835744.0,322.0,325.0,0.0,0.0
364837400.0,321.0,324.0,0.0,0.0
364839056.0,320.0,323.0,0.0,0.0
364840712.0,320.0,322.0,0.0,0.0
364842368.0,321.0,321.0,0.0,0.0
364844028.0,323.0,322.0,0.0,0.0
364845684.0,324.0,321.0,0.0,0.0
364847340.0,325.0,322.0,0.0,0.0
364848996.0,325.0,323.0,0.0,0.0
364850652.0,325.0,326.0,0.0,0.0
364852308.0,324.0,328.0,0.0,0.0
364853964.0,325.0,327.0,0.0,0.0
364855624.0,321.0,324.0,0.0,0.0
364857280.0,320.0,324.0,0.0,0.0
364858936.0,320.0,323.0,0.0,0.0
364860592.0,321.0,322.0,0.0,0.0
364862248.0,321.0,321.0,0.0,0.0
364863904.0,321.0,321.0,0.0,0.0
364865564.0,323.0,321.0,0.0,0.0
364867220.0,323.0,321.0,0.0,0.0
364868876.0,322.0,322.0,0.0,0.0
364870532.0,323.0,324.0,0.0,0.0
364872188.0,322.0,325.0,0.0,0.0
364873844.0,322.0,325.0,0.0,0.0
364875500.0,321.0,325.0,0.0,0.0
364877160.0,321.0,323.0,0.0,0.0
364878816.0,320.0,323.0,0.0,0.0
364880472.0,320.0,323.0,0.0,0.0
364882128.0,321.0,322.0,0.0,0.0
364883784.0,324.0,321.0,0.0,0.0
364885440.0,324.0,321.0,0.0,0.0
364887100.0,323.0,322.0,0.0,0.0
364888752.0,322.0,323.0,0.0,0.0
364890412.0,322.0,324.0,0.0,0.0
364892068.0,323.0,325.0,0.0,0.0
364893724.0,322.0,324.0,0.0,0.0
364895380.0,322.0,325.0,0.0,0.0
364897036.0,320.0,324.0,0.0,0.0
364898692.0,320.0,323.0,0.0,0.0
364900352.0,322.0,325.0,0.0,0.0
364902004.0,323.0,323.0,0.0,0.0
364903664.0,322.0,321.0,0.0,0.0
364905320.0,324.0,320.0,0.0,0.0
364906976.0,324.0,322.0,0.0,0.0
364908632.0,323.0,324.0,0.0,0.0
364910288.0,324.0,322.0,0.0,0.0
364911944.0,324.0,323.0,0.0,0.0
364913604.0,322.0,324.0,0.0,0.0
364915260.0,319.0,325.0,0.0,0.0
364916916.0,321.0,326.0,0.0,0.0
364918572.0,323.0,325.0,0.0,0.0
364920228.0,320.0,322.0,0.0,0.0
364921884.0,320.0,322.0,0.0,0.0
364923544.0,320.0,322.0,0.0,0.0
364925200.0,320.0,321.0,0.0,0.0
364926856.0,323.0,321.0,0.0,0.0
364928512.0,324.0,322.0,0.0,0.0
364930168.0,325.0,322.0,0.0,0.0
364931824.0,324.0,324.0,0.0,0.0
364933480.0,322.0,324.0,0.0,0.0
364935136.0,323.0,324.0,0.0,0.0
364936796.0,321.0,324.0,0.0,0.0
364938452.0,320.0,324.0,0.0,0.0
364940108.0,319.0,323.0,0.0,0.0
364941764.0,319.0,321.0,0.0,0.0
364943420.0,322.0,322.0,0.0,0.0
364945076.0,322.0,321.0,0.0,0.0
364946736.0,323.0,320.0,0.0,0.0
364948388.0,323.0,322.0,0.0,0.0
364950048.0,324.0,323.0,0.0,0.0
364951704.0,323.0,324.0,0.0,0.0
364953360.0,322.0,325.0,0.0,0.0
364955016.0,322.0,326.0,0.0,0.0
364956680.0,319.0,325.0,0.0,0.0
364958328.0,321.0,324.0,0.0,0.0
364959984.0,320.0,323.0,0.0,0.0
364961644.0,320.0,322.0,0.0,0.0
364963300.0,321.0,321.0,0.0,0.0
364964956.0,322.0,320.0,0.0,0.0
364966612.0,326.0,324.0,0.0,0.0
364968268.0,327.0,324.0,0.0,0.0
364969924.0,324.0,323.0,0.0,0.0
364971584.0,323.0,323.0,0.0,0.0
364973240.0,321.0,324.0,0.0,0.0
364974896.0,321.0,325.0,0.0,0.0
364976552.0,321.0,324.0,0.0,0.0
364978208.0,321.0,325.0,0.0,0.0
364979864.0,320.0,323.0,0.0,0.0
364981520.0,320.0,322.0,0.0,0.0
364983176.0,319.0,323.0,0.0,0.0
364984832.0,325.0,323.0,0.0,0.0
364986492.0,323.0,322.0,0.0,0.0
364988148.0,325.0,321.0,0.0,0.0
364989804.0,322.0,323.0,0.0,0.0
364991460.0,323.0,324.0,0.0,0.0
364993116.0,323.0,325.0,0.0,0.0
364994776.0,323.0,325.0,0.0,0.0
364996432.0,322.0,323.0,0.0,0.0
364998088.0,320.0,323.0,0.0,0.0
364999744.0,321.0,323.0,0.0,0.0
365001400.0,320.0,322.0,0.0,0.0
365003056.0,320.0,321.0,0.0,0.0
365004712.0,321.0,322.0,0.0,0.0
365006368.0,324.0,322.0,0.0,0.0
365008024.0,323.0,322.0,0.0,0.0
365009684.0,323.0,323.0,0.0,0.0
365011340.0,323.0,324.0,0.0,0.0
365013004.0,322.0,326.0,0.0,0.0
365014652.0,322.0,324.0,0.0,0.0
365016312.0,322.0,325.0,0.0,0.0
365017964.0,323.0,324.0,0.0,0.0
365019620.0,320.0,322.0,0.0,0.0
365021280.0,319.0,322.0,0.0,0.0
365022936.0,322.0,322.0,0.0,0.0
365024592.0,321.0,322.0,0.0,0.0
365026248.0,322.0,322.0,0.0,0.0
365027904.0,324.0,321.0,0.0,0.0
365029560.0,324.0,322.0,0.0,0.0
365031220.0,324.0,323.0,0.0,0.0
365032876.0,322.0,325.0,0.0,0.0
365034532.0,324.0,329.0,0.0,0.0
365036188.0,321.0,326.0,0.0,0.0
365037844.0,320.0,324.0,0.0,0.0
365039500.0,320.0,323.0,0.0,0.0
365041156.0,322.0,322.0,0.0,0.0
365042812.0,321.0,322.0,0.0,0.0
365044472.0,322.0,321.0,0.0,0.0
365046128.0,323.0,321.0,0.0,0.0
365047784.0,323.0,321.0,0.0,0.0
365049440.0,324.0,322.0,0.0,0.0
365051096.0,325.0,326.0,0.0,0.0
365052752.0,324.0,326.0,0.0,0.0
365054408.0,322.0,325.0,0.0,0.0
365056068.0,320.0,324.0,0.0,0.0
365057724.0,319.0,323.0,0.0,0.0
365059380.0,320.0,323.0,0.0,0.0
365061036.0,320.0,322.0,0.0,0.0
365062692.0,319.0,321.0,0.0,0.0
365064352.0,322.0,320.0,0.0,0.0
365066008.0,324.0,320.0,0.0,0.0
365067664.0,324.0,322.0,0.0,0.0
365069328.0,324.0,322.0,0.0,0.0
365070976.0,323.0,324.0,0.0,0.0
365072632.0,324.0,325.0,0.0,0.0
365074288.0,322.0,324.0,0.0,0.0
365075944.0,321.0,325.0,0.0,0.0
365077604.0,321.0,323.0,0.0,0.0
365079260.0,321.0,323.0,0.0,0.0
365080916.0,319.0,323.0,0.0,0.0
365082572.0,321.0,322.0,0.0,0.0
365084228.0,323.0,321.0,0.0,0.0
365085884.0,326.0,324.0,0.0,0.0
365087540.0,322.0,323.0,0.0,0.0
365089196.0,323.0,322.0,0.0,0.0
365090856.0,323.0,322.0,0.0,0.0
365092512.0,325.0,322.0,0.0,0.0
365094168.0,322.0,323.0,0.0,0.0
365095824.0,321.0,324.0,0.0,0.0
365097480.0,320.0,324.0,1.0,0.0
365099136.0,320.0,324.0,1.0,0.0
365100796.0,324.0,327.0,1.0,0.0
365102452.0,321.0,323.0,1.0,0.0
365104108.0,321.0,322.0,1.0,0.0
365105764.0,322.0,322.0,1.0,0.0
365107420.0,325.0,321.0,1.0,0.0
365109076.0,324.0,322.0,1.0,0.0
365110732.0,323.0,324.0,1.0,0.0
365112388.0,324.0,324.0,1.0,0.0
365114048.0,323.0,325.0,1.0,0.0
365115704.0,322.0,325.0,1.0,0.0
365117360.0,322.0,326.0,1.0,0.0
365119016.0,317.0,324.0,1.0,0.0
365120672.0,320.0,322.0,1.0,0.0
365122328.0,321.0,321.0,1.0,0.0
365123988.0,323.0,321.0,1.0,0.0
365125652.0,321.0,321.0,1.0,0.0
365127300.0,322.0,321.0,1.0,0.0
365128956.0,324.0,322.0,1.0,0.0
365130612.0,323.0,323.0,1.0,0.0
365132268.0,322.0,324.0,1.0,0.0
365133924.0,322.0,324.0,1.0,0.0
365135580.0,323.0,325.0,1.0,0.0
365137236.0,323.0,325.0,1.0,0.0
365138896.0,322.0,324.0,1.0,0.0
365140552.0,320.0,323.0,1.0,0.0
365142208.0,320.0,322.0,1.0,0.0
365143864.0,321.0,321.0,1.0,0.0
365145520.0,322.0,322.0,1.0,0.0
365147176.0,322.0,320.0,1.0,0.0
365148836.0,322.0,322.0,1.0,0.0
365150492.0,326.0,326.0,1.0,0.0
365152148.0,324.0,325.0,1.0,0.0
365153804.0,323.0,324.0,1.0,0.0
365155460.0,324.0,324.0,1.0,0.0
365157116.0,322.0,324.0,1.0,0.0
365158772.0,322.0,325.0,1.0,0.0
365160432.0,321.0,324.0,1.0,0.0
365162088.0,320.0,322.0,1.0,0.0
365163744.0,320.0,322.0,1.0,0.0
365165400.0,319.0,321.0,1.0,0.0
365167056.0,317.0,323.0,1.0,0.0
365168712.0,325.0,321.0,1.0,0.0
365170372.0,324.0,322.0,1.0,0.0
365172028.0,323.0,325.0,1.0,0.0
365173684.0,322.0,324.0,1.0,0.0
365175340.0,326.0,324.0,1.0,0.0
365176996.0,323.0,324.0,1.0,0.0
365178652.0,323.0,324.0,0.0,0.0
365180308.0,318.0,323.0,0.0,0.0
365181972.0,319.0,322.0,0.0,0.0
365183620.0,321.0,320.0,0.0,0.0
365185280.0,322.0,322.0,0.0,0.0
365186936.0,323.0,321.0,0.0,0.0
365188592.0,325.0,322.0,0.0,0.0
365190248.0,326.0,321.0,0.0,0.0
365191904.0,322.0,324.0,0.0,0.0
365193560.0,322.0,324.0,0.0,0.0
365195220.0,321.0,325.0,0.0,0.0
365196872.0,310.0,324.0,0.0,0.0
365198532.0,319.0,324.0,0.0,0.0
365200188.0,323.0,323.0,0.0,0.0
365201844.0,324.0,323.0,0.0,0.0
365203500.0,326.0,322.0,0.0,0.0
365205156.0,324.0,322.0,0.0,0.0
365206812.0,323.0,321.0,0.0,0.0
365208472.0,317.0,321.0,0.0,0.0
365210128.0,317.0,322.0,0.0,0.0
365211784.0,324.0,323.0,0.0,0.0
365213440.0,324.0,324.0,0.0,0.0
365215096.0,323.0,324.0,0.0,0.0
365216752.0,326.0,328.0,0.0,0.0
365218408.0,324.0,324.0,0.0,0.0
365220068.0,321.0,323.0,0.0,0.0
365221724.0,320.0,323.0,0.0,0.0
365223380.0,322.0,321.0,0.0,0.0
365225036.0,322.0,322.0,0.0,0.0
365226692.0,322.0,321.0,0.0,0.0
365228348.0,323.0,321.0,0.0,0.0
365230004.0,324.0,321.0,0.0,0.0
365231664.0,323.0,323.0,0.0,0.0
365233320.0,323.0,325.0,0.0,0.0
365234976.0,323.0,325.0,0.0,0.0
365236632.0,325.0,326.0,0.0,0.0
365238296.0,320.0,324.0,0.0,0.0
365239948.0,317.0,323.0,0.0,0.0
365241600.0,319.0,322.0,0.0,0.0
365243260.0,321.0,321.0,0.0,0.0
365244916.0,323.0,322.0,0.0,0.0
365246572.0,322.0,321.0,0.0,0.0
365248228.0,322.0,321.0,0.0,0.0
365249884.0,323.0,322.0,0.0,0.0
365251540.0,324.0,322.0,0.0,0.0
365253196.0,324.0,324.0,0.0,0.0
365254852.0,323.0,325.0,0.0,0.0
365256512.0,321.0,324.0,0.0,0.0
365258168.0,319.0,325.0,0.0,0.0
365259824.0,320.0,325.0,0.0,0.0
365261480.0,320.0,324.0,0.0,0.0
365263136.0,321.0,323.0,0.0,0.0
365264792.0,320.0,321.0,0.0,0.0
365266452.0,321.0,320.0,0.0,0.0
365268108.0,324.0,320.0,0.0,0.0
365269764.0,324.0,322.0,0.0,0.0
365271420.0,324.0,323.0,0.0,0.0
365273076.0,321.0,324.0,0.0,0.0
365274732.0,320.0,325.0,0.0,0.0
365276388.0,322.0,325.0,0.0,0.0
365278044.0,323.0,325.0,0.0,0.0
365279704.0,320.0,324.0,0.0,0.0
365281360.0,321.0,324.0,0.0,0.0
365283016.0,324.0,324.0,0.0,0.0
365284672.0,325.0,322.0,0.0,0.0
365286328.0,323.0,321.0,0.0,0.0
365287984.0,322.0,321.0,0.0,0.0
365289644.0,322.0,322.0,0.0,0.0
365291300.0,324.0,323.0,0.0,0.0
365292956.0,323.0,324.0,0.0,0.0
365294620.0,322.0,325.0,0.0,0.0
365296268.0,322.0,324.0,0.0,0.0
365297924.0,322.0,326.0,0.0,0.0
365299580.0,321.0,323.0,0.0,0.0
365301236.0,322.0,326.0,0.0,0.0
365302896.0,319.0,323.0,0.0,0.0
365304552.0,320.0,321.0,0.0,0.0
365306208.0,321.0,321.0,0.0,0.0
365307864.0,322.0,322.0,0.0,0.0
365309520.0,326.0,320.0,0.0,0.0
365311176.0,324.0,322.0,0.0,0.0
365312832.0,323.0,322.0,0.0,0.0
365314492.0,323.0,324.0,0.0,0.0
365316148.0,322.0,325.0,0.0,0.0
365317804.0,321.0,324.0,0.0,0.0
365319460.0,322.0,324.0,0.0,0.0
365321116.0,321.0,323.0,0.0,0.0
365322772.0,320.0,323.0,0.0,0.0
365324432.0,318.0,321.0,0.0,0.0
365326088.0,321.0,321.0,0.0,0.0
365327744.0,323.0,322.0,0.0,0.0
365329400.0,324.0,322.0,0.0,0.0
365331056.0,324.0,322.0,0.0,0.0
365332712.0,325.0,324.0,0.0,0.0
365334368.0,323.0,324.0,0.0,0.0
365336024.0,321.0,325.0,0.0,0.0
365337680.0,320.0,325.0,0.0,0.0
365339340.0,321.0,323.0,0.0,0.0
365340996.0,320.0,322.0,0.0,0.0
365342652.0,321.0,322.0,0.0,0.0
365344308.0,321.0,322.0,0.0,0.0
365345964.0,322.0,320.0,0.0,0.0
365347624.0,322.0,320.0,0.0,0.0
365349276.0,323.0,322.0,0.0,0.0
365350940.0,326.0,326.0,0.0,0.0
365352592.0,324.0,324.0,0.0,0.0
365354248.0,324.0,325.0,0.0,0.0
365355904.0,322.0,325.0,0.0,0.0
365357560.0,322.0,324.0,0.0,0.0
365359216.0,320.0,324.0,0.0,0.0
365360872.0,320.0,324.0,0.0,0.0
365362532.0,321.0,323.0,0.0,0.0
365364188.0,322.0,322.0,0.0,0.0
365365844.0,323.0,322.0,0.0,0.0
365367500.0,325.0,323.0,0.0,0.0
365369156.0,322.0,321.0,0.0,0.0
365370816.0,323.0,323.0,0.0,0.0
365372468.0,322.0,323.0,0.0,0.0
365374128.0,323.0,324.0,0.0,0.0
365375784.0,323.0,324.0,0.0,0.0
365377440.0,321.0,325.0,0.0,0.0
365379096.0,320.0,324.0,0.0,0.0
365380752.0,323.0,323.0,0.0,0.0
365382408.0,320.0,322.0,0.0,0.0
365384064.0,319.0,321.0,0.0,0.0
365385724.0,319.0,322.0,0.0,0.0
365387380.0,322.0,322.0,0.0,0.0
365389036.0,323.0,322.0,0.0,0.0
365390692.0,325.0,322.0,0.0,0.0
365392348.0,324.0,323.0,0.0,0.0
365394004.0,323.0,324.0,0.0,0.0
365395664.0,322.0,325.0,0.0,0.0
365397316.0,322.0,325.0,0.0,0.0
365398976.0,322.0,326.0,0.0,0.0
365400632.0,323.0,328.0,0.0,0.0
365402288.0,321.0,323.0,0.0,0.0
365403944.0,321.0,322.0,0.0,0.0
365405604.0,321.0,322.0,0.0,0.0
365407260.0,322.0,322.0,0.0,0.0
365408916.0,322.0,320.0,0.0,0.0
365410572.0,323.0,322.0,0.0,0.0
365412228.0,324.0,323.0,0.0,0.0
365413884.0,324.0,324.0,0.0,0.0
365415540.0,322.0,326.0,0.0,0.0
365417196.0,323.0,328.0,0.0,0.0
365418856.0,322.0,324.0,0.0,0.0
365420512.0,322.0,324.0,0.0,0.0
365422168.0,320.0,322.0,0.0,0.0
365423824.0,320.0,322.0,0.0,0.0
365425480.0,320.0,321.0,1.0,0.0
365427136.0,322.0,320.0,1.0,0.0
365428792.0,323.0,322.0,1.0,0.0
365430452.0,324.0,322.0,1.0,0.0
365432108.0,323.0,323.0,1.0,0.0
365433764.0,322.0,324.0,1.0,0.0
365435420.0,324.0,324.0,1.0,0.0
365437076.0,322.0,324.0,1.0,0.0
365438732.0,319.0,324.0,1.0,0.0
365440388.0,320.0,325.0,1.0,0.0
365442048.0,322.0,322.0,1.0,0.0
365443704.0,321.0,322.0,1.0,0.0
365445360.0,322.0,322.0,1.0,0.0
365447016.0,322.0,321.0,1.0,0.0
365448672.0,321.0,322.0,1.0,0.0
365450328.0,323.0,322.0,1.0,0.0
365451984.0,325.0,324.0,1.0,0.0
365453640.0,324.0,324.0,1.0,0.0
365455300.0,324.0,325.0,1.0,0.0
365456956.0,322.0,324.0,1.0,0.0
365458612.0,322.0,324.0,1.0,0.0
365460268.0,320.0,324.0,1.0,0.0
365461924.0,320.0,324.0,1.0,0.0
365463580.0,320.0,322.0,1.0,0.0
365465240.0,321.0,321.0,1.0,0.0
365466896.0,325.0,323.0,1.0,0.0
365468552.0,323.0,321.0,1.0,0.0
365470208.0,321.0,322.0,1.0,0.0
365471864.0,322.0,324.0,1.0,0.0
365473520.0,324.0,324.0,1.0,0.0
365475176.0,324.0,325.0,1.0,0.0
365476836.0,327.0,324.0,1.0,0.0
365478492.0,322.0,325.0,1.0,0.0
365480148.0,319.0,324.0,1.0,0.0
365481804.0,320.0,324.0,1.0,0.0
365483460.0,321.0,326.0,1.0,0.0
365485116.0,324.0,323.0,1.0,0.0
365486772.0,322.0,322.0,1.0,0.0
365488428.0,321.0,320.0,1.0,0.0
365490088.0,323.0,321.0,1.0,0.0
365491744.0,324.0,322.0,1.0,0.0
365493400.0,324.0,324.0,1.0,0.0
365495056.0,324.0,324.0,1.0,0.0
365496712.0,322.0,324.0,1.0,0.0
365498376.0,321.0,326.0,1.0,0.0
365500024.0,321.0,325.0,1.0,0.0
365501684.0,320.0,324.0,1.0,0.0
365503336.0,319.0,323.0,1.0,0.0
365504996.0,318.0,323.0,1.0,0.0
365506652.0,323.0,321.0,1.0,0.0
365508308.0,323.0,321.0,1.0,0.0
365509964.0,322.0,321.0,1.0,0.0
365511620.0,322.0,321.0,1.0,0.0
365513280.0,325.0,323.0,1.0,0.0
365514936.0,324.0,324.0,1.0,0.0
365516592.0,322.0,326.0,1.0,0.0
365518248.0,325.0,325.0,1.0,0.0
365519904.0,323.0,324.0,1.0,0.0
365521560.0,323.0,327.0,1.0,0.0
365523216.0,324.0,324.0,1.0,0.0
365524872.0,313.0,322.0,1.0,0.0
365526532.0,314.0,322.0,1.0,0.0
365528188.0,317.0,322.0,1.0,0.0
365529844.0,324.0,322.0,1.0,0.0
365531500.0,328.0,322.0,1.0,0.0
365533156.0,334.0,326.0,1.0,0.0
365534816.0,331.0,326.0,1.0,0.0
365536472.0,323.0,324.0,1.0,0.0
365538128.0,310.0,325.0,1.0,0.0
365539784.0,319.0,325.0,1.0,0.0
365541440.0,321.0,323.0,1.0,0.0
365543096.0,322.0,323.0,1.0,0.0
365544752.0,322.0,322.0,1.0,0.0
365546408.0,322.0,321.0,1.0,0.0
365548064.0,322.0,321.0,1.0,0.0
365549724.0,321.0,322.0,1.0,0.0
365551380.0,325.0,324.0,1.0,0.0
365553036.0,325.0,323.0,0.0,0.0
365554700.0,325.0,322.0,0.0,0.0
365556348.0,324.0,324.0,0.0,0.0
365558004.0,322.0,325.0,0.0,0.0
365559664.0,321.0,324.0,0.0,0.0
365561316.0,321.0,324.0,0.0,0.0
365562976.0,320.0,323.0,0.0,0.0
365564632.0,320.0,322.0,0.0,0.0
365566288.0,321.0,322.0,0.0,0.0
365567944.0,320.0,321.0,0.0,0.0
365569600.0,323.0,320.0,0.0,0.0
365571260.0,323.0,322.0,0.0,0.0
365572912.0,324.0,323.0,0.0,0.0
365574572.0,323.0,324.0,0.0,0.0
365576228.0,323.0,324.0,0.0,0.0
365577884.0,320.0,325.0,0.0,0.0
365579540.0,322.0,324.0,0.0,0.0
365581196.0,321.0,325.0,0.0,0.0
365582852.0,320.0,324.0,0.0,0.0
365584508.0,321.0,322.0,0.0,0.0
365586168.0,321.0,322.0,0.0,0.0
365587824.0,321.0,322.0,0.0,0.0
365589480.0,322.0,321.0,0.0,0.0
365591136.0,324.0,321.0,0.0,0.0
365592792.0,324.0,322.0,0.0,0.0
365594452.0,323.0,324.0,0.0,0.0
365596108.0,322.0,326.0,0.0,0.0
365597764.0,323.0,324.0,0.0,0.0
365599420.0,324.0,327.0,0.0,0.0
365601076.0,322.0,326.0,0.0,0.0
365602732.0,320.0,323.0,0.0,0.0
365604388.0,318.0,323.0,0.0,0.0
365606044.0,320.0,321.0,0.0,0.0
365607704.0,322.0,321.0,0.0,0.0
365609360.0,323.0,321.0,0.0,0.0
365611024.0,323.0,322.0,0.0,0.0
365612672.0,323.0,323.0,0.0,0.0
365614328.0,324.0,324.0,0.0,0.0
365615984.0,324.0,324.0,0.0,0.0
365617644.0,324.0,328.0,0.0,0.0
365619300.0,321.0,324.0,0.0,0.0
365620956.0,319.0,323.0,0.0,0.0
365622612.0,320.0,324.0,0.0,0.0
365624268.0,320.0,322.0,0.0,0.0
365625924.0,320.0,322.0,0.0,0.0
365627580.0,321.0,321.0,0.0,0.0
365629236.0,321.0,321.0,0.0,0.0
365630896.0,323.0,321.0,0.0,0.0
365632548.0,326.0,322.0,0.0,0.0
365634208.0,324.0,324.0,0.0,0.0
365635864.0,323.0,325.0,0.0,0.0
365637520.0,323.0,324.0,0.0,0.0
365639176.0,322.0,324.0,0.0,0.0
365640832.0,320.0,324.0,0.0,0.0
365642488.0,319.0,323.0,0.0,0.0
365644144.0,319.0,323.0,0.0,0.0
365645804.0,320.0,322.0,0.0,0.0
365647460.0,322.0,322.0,0.0,0.0
365649116.0,322.0,323.0,0.0,0.0
365650772.0,326.0,324.0,0.0,0.0
365652428.0,325.0,322.0,0.0,0.0
365654084.0,323.0,323.0,0.0,0.0
365655744.0,324.0,323.0,0.0,0.0
365657400.0,323.0,325.0,0.0,0.0
365659056.0,319.0,324.0,0.0,0.0
365660712.0,320.0,326.0,0.0,0.0
365662368.0,320.0,324.0,0.0,0.0
365664024.0,320.0,322.0,0.0,0.0
365665680.0,320.0,322.0,0.0,0.0
365667348.0,324.0,324.0,0.0,0.0
365668996.0,323.0,321.0,0.0,0.0
365670652.0,323.0,321.0,0.0,0.0
365672308.0,323.0,322.0,0.0,0.0
365673964.0,323.0,323.0,0.0,0.0
365675620.0,324.0,324.0,0.0,0.0
365677280.0,323.0,326.0,0.0,0.0
365678936.0,322.0,324.0,0.0,0.0
365680592.0,320.0,324.0,0.0,0.0
365682248.0,321.0,324.0,0.0,0.0
365683904.0,320.0,323.0,0.0,0.0
365685560.0,320.0,322.0,0.0,0.0
365687216.0,322.0,321.0,0.0,0.0
365688876.0,321.0,321.0,0.0,0.0
365690528.0,322.0,321.0,0.0,0.0
365692188.0,322.0,322.0,0.0,0.0
365693844.0,322.0,323.0,0.0,0.0
365695500.0,323.0,323.0,0.0,0.0
365697156.0,322.0,324.0,0.0,0.0
365698812.0,322.0,326.0,0.0,0.0
365700468.0,322.0,325.0,0.0,0.0
365702124.0,322.0,324.0,0.0,0.0
365703784.0,321.0,323.0,0.0,0.0
365705440.0,321.0,322.0,0.0,0.0
365707096.0,319.0,321.0,0.0,0.0
365708752.0,320.0,322.0,0.0,0.0
365710408.0,321.0,321.0,0.0,0.0
365712068.0,324.0,322.0,0.0,0.0
365713720.0,326.0,323.0,0.0,0.0
365715380.0,323.0,324.0,0.0,0.0
365717036.0,326.0,327.0,0.0,0.0
365718692.0,324.0,325.0,0.0,0.0
365720348.0,319.0,325.0,0.0,0.0
365722004.0,319.0,324.0,0.0,0.0
365723672.0,321.0,323.0,0.0,0.0
365725320.0,320.0,323.0,0.0,0.0
365726976.0,320.0,322.0,0.0,0.0
365728632.0,322.0,322.0,0.0,0.0
365730288.0,325.0,319.0,0.0,0.0
365731944.0,323.0,321.0,0.0,0.0
365733600.0,325.0,327.0,0.0,0.0
365735256.0,325.0,325.0,0.0,0.0
365736912.0,323.0,325.0,0.0,0.0
365738572.0,322.0,324.0,0.0,0.0
365740228.0,321.0,323.0,0.0,0.0
365741884.0,319.0,323.0,0.0,0.0
365743540.0,321.0,323.0,0.0,0.0
365745196.0,320.0,322.0,0.0,0.0
365746852.0,321.0,322.0,0.0,0.0
365748508.0,322.0,321.0,0.0,0.0
365750168.0,322.0,321.0,0.0,0.0
365751824.0,323.0,322.0,0.0,0.0
365753480.0,322.0,323.0,0.0,0.0
365755136.0,324.0,323.0,0.0,0.0
365756792.0,323.0,325.0,0.0,0.0
365758448.0,323.0,325.0,0.0,0.0
365760108.0,322.0,325.0,0.0,0.0
365761764.0,322.0,324.0,0.0,0.0
365763420.0,320.0,323.0,0.0,0.0
365765076.0,319.0,324.0,0.0,0.0
365766732.0,319.0,322.0,0.0,0.0
365768388.0,320.0,321.0,0.0,0.0
365770044.0,322.0,320.0,0.0,0.0
365771704.0,323.0,320.0,0.0,0.0
365773360.0,323.0,321.0,0.0,0.0
365775016.0,325.0,323.0,0.0,0.0
365776672.0,323.0,324.0,0.0,0.0
365778328.0,322.0,325.0,0.0,0.0
365779992.0,321.0,324.0,0.0,0.0
365781640.0,320.0,325.0,0.0,0.0
365783296.0,323.0,327.0,0.0,0.0
365784956.0,322.0,323.0,0.0,0.0
365786612.0,321.0,322.0,0.0,0.0
365788268.0,322.0,321.0,0.0,0.0
365789924.0,322.0,321.0,0.0,0.0
365791580.0,323.0,321.0,0.0,0.0
365793236.0,323.0,322.0,0.0,0.0
365794892.0,322.0,323.0,0.0,0.0
365796548.0,321.0,324.0,0.0,0.0
365798208.0,323.0,324.0,0.0,0.0
365799864.0,323.0,327.0,0.0,0.0
365801520.0,325.0,325.0,0.0,0.0
365803176.0,322.0,324.0,0.0,0.0
365804832.0,320.0,323.0,0.0,0.0
365806488.0,319.0,321.0,1.0,0.0
365808144.0,321.0,322.0,1.0,0.0
365809804.0,322.0,322.0,1.0,0.0
365811460.0,323.0,321.0,1.0,0.0
365813116.0,324.0,322.0,1.0,0.0
365814772.0,324.0,323.0,1.0,0.0
365816428.0,322.0,324.0,1.0,0.0
365818084.0,323.0,325.0,1.0,0.0
365819744.0,322.0,325.0,1.0,0.0
365821400.0,321.0,324.0,1.0,0.0
365823056.0,322.0,324.0,1.0,0.0
365824712.0,319.0,323.0,1.0,0.0
365826368.0,319.0,322.0,1.0,0.0
365828024.0,322.0,322.0,1.0,0.0
365829680.0,323.0,320.0,1.0,0.0
365831340.0,322.0,322.0,1.0,0.0
365832992.0,323.0,320.0,1.0,0.0
365834652.0,324.0,324.0,1.0,0.0
365836316.0,322.0,324.0,1.0,0.0
365837964.0,324.0,325.0,1.0,0.0
365839620.0,321.0,325.0,1.0,0.0
365841276.0,321.0,324.0,1.0,0.0
365842932.0,320.0,324.0,1.0,0.0
365844588.0,320.0,322.0,1.0,0.0
365846248.0,321.0,323.0,1.0,0.0
365847904.0,321.0,322.0,1.0,0.0
365849560.0,322.0,323.0,1.0,0.0
365851216.0,325.0,324.0,1.0,0.0
365852872.0,325.0,321.0,1.0,0.0
365854532.0,325.0,322.0,1.0,0.0
365856188.0,324.0,324.0,1.0,0.0
365857844.0,322.0,325.0,1.0,0.0
365859500.0,321.0,324.0,1.0,0.0
365861156.0,319.0,324.0,1.0,0.0
365862812.0,322.0,324.0,1.0,0.0
365864468.0,321.0,322.0,1.0,0.0
365866124.0,319.0,323.0,0.0,0.0
365867784.0,314.0,323.0,0.0,0.0
365869440.0,322.0,322.0,0.0,0.0
365871096.0,325.0,321.0,0.0,0.0
365872752.0,327.0,322.0,0.0,0.0
365874408.0,328.0,322.0,0.0,0.0
365876064.0,328.0,324.0,0.0,0.0
365877720.0,321.0,324.0,0.0,0.0
365879380.0,320.0,323.0,0.0,0.0
365881036.0,315.0,324.0,0.0,0.0
365882692.0,315.0,324.0,0.0,0.0
365884348.0,320.0,324.0,0.0,0.0
365886004.0,321.0,322.0,0.0,0.0
365887660.0,321.0,322.0,0.0,0.0
365889320.0,322.0,322.0,0.0,0.0
365890976.0,327.0,320.0,0.0,0.0
365892636.0,327.0,322.0,0.0,0.0
365894288.0,325.0,322.0,0.0,0.0
365895944.0,321.0,323.0,0.0,0.0
365897600.0,323.0,324.0,0.0,0.0
365899256.0,318.0,327.0,0.0,0.0
365900916.0,327.0,327.0,0.0,0.0
365902568.0,322.0,324.0,0.0,0.0
365904228.0,321.0,324.0,0.0,0.0
365905884.0,321.0,323.0,0.0,0.0
365907540.0,321.0,322.0,0.0,0.0
365909196.0,322.0,320.0,0.0,0.0
365910852.0,323.0,321.0,0.0,0.0
365912512.0,324.0,321.0,0.0,0.0
365914168.0,322.0,322.0,0.0,0.0
365915820.0,323.0,324.0,0.0,0.0
365917480.0,326.0,327.0,0.0,0.0
365919136.0,325.0,328.0,0.0,0.0
365920792.0,323.0,326.0,0.0,0.0
365922448.0,320.0,324.0,0.0,0.0
365924104.0,319.0,323.0,0.0,0.0
365925760.0,320.0,322.0,0.0,0.0
365927420.0,321.0,321.0,0.0,0.0
365929076.0,322.0,321.0,0.0,0.0
365930732.0,322.0,321.0,0.0,0.0
365932388.0,324.0,322.0,0.0,0.0
365934044.0,322.0,322.0,0.0,0.0
365935700.0,323.0,323.0,0.0,0.0
365937356.0,323.0,324.0,0.0,0.0
365939016.0,323.0,325.0,0.0,0.0
365940672.0,322.0,324.0,0.0,0.0
365942328.0,321.0,324.0,0.0,0.0
365943984.0,321.0,324.0,0.0,0.0
365945640.0,320.0,323.0,0.0,0.0
365947296.0,321.0,322.0,0.0,0.0
365948956.0,321.0,322.0,0.0,0.0
365950608.0,321.0,319.0,0.0,0.0
365952268.0,323.0,321.0,0.0,0.0
365953924.0,325.0,322.0,0.0,0.0
365955580.0,324.0,323.0,0.0,0.0
365957236.0,323.0,324.0,0.0,0.0
365958892.0,322.0,325.0,0.0,0.0
365960552.0,321.0,324.0,0.0,0.0
365962204.0,322.0,325.0,0.0,0.0
365963864.0,322.0,325.0,0.0,0.0
365965520.0,321.0,325.0,0.0,0.0
365967176.0,322.0,325.0,0.0,0.0
365968832.0,322.0,322.0,0.0,0.0
365970488.0,323.0,322.0,0.0,0.0
365972144.0,322.0,320.0,0.0,0.0
365973804.0,324.0,322.0,0.0,0.0
365975460.0,323.0,323.0,0.0,0.0
365977116.0,322.0,324.0,0.0,0.0
365978772.0,323.0,324.0,0.0,0.0
365980428.0,322.0,324.0,0.0,0.0
365982084.0,322.0,324.0,0.0,0.0
365983740.0,324.0,327.0,0.0,0.0
365985400.0,320.0,324.0,0.0,0.0
365987056.0,319.0,322.0,0.0,0.0
365988712.0,321.0,321.0,0.0,0.0
365990368.0,324.0,321.0,0.0,0.0
365992024.0,324.0,320.0,0.0,0.0
365993680.0,323.0,321.0,0.0,0.0
365995336.0,323.0,322.0,0.0,0.0
365996996.0,322.0,323.0,0.0,0.0
365998652.0,321.0,325.0,0.0,0.0
366000308.0,321.0,325.0,0.0,0.0
366001964.0,322.0,324.0,0.0,0.0
366003620.0,321.0,325.0,0.0,0.0
366005276.0,321.0,323.0,0.0,0.0
366006932.0,319.0,322.0,0.0,0.0
366008592.0,317.0,322.0,0.0,0.0
366010244.0,320.0,322.0,0.0,0.0
366011904.0,324.0,320.0,0.0,0.0
366013560.0,326.0,321.0,0.0,0.0
366015216.0,325.0,322.0,0.0,0.0
366016872.0,323.0,323.0,0.0,0.0
366018528.0,323.0,325.0,0.0,0.0
366020184.0,321.0,325.0,0.0,0.0
366021840.0,320.0,326.0,0.0,0.0
366023500.0,320.0,325.0,0.0,0.0
366025156.0,322.0,323.0,0.0,0.0
366026812.0,320.0,322.0,0.0,0.0
366028468.0,320.0,321.0,0.0,0.0
366030124.0,321.0,322.0,0.0,0.0
366031784.0,321.0,322.0,0.0,0.0
366033440.0,326.0,324.0,0.0,0.0
366035096.0,325.0,323.0,0.0,0.0
366036752.0,325.0,323.0,0.0,0.0
366038408.0,322.0,325.0,0.0,0.0
366040072.0,322.0,325.0,0.0,0.0
366041720.0,322.0,325.0,0.0,0.0
366043380.0,319.0,324.0,0.0,0.0
366045032.0,321.0,323.0,0.0,0.0
366046692.0,321.0,323.0,0.0,0.0
366048348.0,320.0,321.0,0.0,0.0
366050004.0,324.0,323.0,0.0,0.0
366051660.0,323.0,321.0,0.0,0.0
366053316.0,322.0,321.0,0.0,0.0
366054976.0,323.0,322.0,0.0,0.0
366056632.0,324.0,324.0,0.0,0.0
366058288.0,322.0,325.0,0.0,0.0
366059944.0,322.0,325.0,0.0,0.0
366061600.0,321.0,325.0,0.0,0.0
366063256.0,321.0,324.0,0.0,0.0
366064912.0,321.0,324.0,0.0,0.0
366066568.0,319.0,322.0,0.0,0.0
366068228.0,320.0,321.0,0.0,0.0
366069884.0,322.0,320.0,0.0,0.0
366071540.0,322.0,321.0,0.0,0.0
366073196.0,321.0,322.0,0.0,0.0
366074852.0,323.0,322.0,0.0,0.0
366076512.0,324.0,322.0,0.0,0.0
366078164.0,324.0,324.0,0.0,0.0
366079824.0,322.0,325.0,0.0,0.0
366081480.0,323.0,325.0,0.0,0.0
366083136.0,321.0,324.0,0.0,0.0
366084792.0,320.0,324.0,0.0,0.0
366086448.0,319.0,324.0,0.0,0.0
366088104.0,320.0,321.0,0.0,0.0
366089760.0,320.0,322.0,0.0,0.0
366091416.0,322.0,320.0,0.0,0.0
366093076.0,324.0,320.0,0.0,0.0
366094732.0,324.0,321.0,0.0,0.0
366096396.0,322.0,323.0,0.0,0.0
366098044.0,323.0,324.0,0.0,0.0
366099700.0,326.0,328.0,0.0,0.0
366101356.0,323.0,326.0,0.0,0.0
366103012.0,322.0,324.0,0.0,0.0
366104672.0,320.0,324.0,0.0,0.0
366106328.0,321.0,323.0,0.0,0.0
366107984.0,320.0,323.0,0.0,0.0
366109640.0,318.0,321.0,0.0,0.0
366111296.0,322.0,321.0,0.0,0.0
366112956.0,325.0,320.0,0.0,0.0
366114608.0,323.0,321.0,0.0,0.0
366116268.0,325.0,324.0,0.0,0.0
366117924.0,326.0,325.0,0.0,0.0
366119580.0,322.0,324.0,0.0,0.0
366121236.0,322.0,325.0,0.0,0.0
366122892.0,320.0,325.0,0.0,0.0
366124548.0,321.0,324.0,0.0,0.0
366126204.0,321.0,324.0,0.0,0.0
366127864.0,321.0,322.0,0.0,0.0
366129520.0,321.0,322.0,0.0,0.0
366131176.0,321.0,322.0,0.0,0.0
366132832.0,323.0,320.0,0.0,0.0
366134488.0,325.0,321.0,0.0,0.0
366136144.0,324.0,323.0,0.0,0.0
366137800.0,325.0,324.0,0.0,0.0
366139460.0,323.0,324.0,0.0,0.0
366141116.0,320.0,325.0,0.0,0.0
366142772.0,320.0,326.0,0.0,0.0
366144428.0,320.0,325.0,0.0,0.0
366146084.0,320.0,323.0,0.0,0.0
366147740.0,322.0,322.0,0.0,0.0
366149400.0,322.0,321.0,0.0,0.0
366151056.0,321.0,320.0,0.0,0.0
366152720.0,322.0,320.0,0.0,0.0
366154368.0,323.0,322.0,0.0,0.0
366156024.0,323.0,323.0,0.0,0.0
366157680.0,324.0,323.0,0.0,0.0
366159336.0,322.0,324.0,0.0,0.0
366160996.0,321.0,325.0,0.0,0.0
366162652.0,322.0,324.0,0.0,0.0
366164308.0,320.0,324.0,0.0,0.0
366165964.0,320.0,326.0,0.0,0.0
366167620.0,324.0,325.0,0.0,0.0
366169276.0,321.0,323.0,0.0,0.0
366170932.0,323.0,321.0,0.0,0.0
366172588.0,322.0,321.0,0.0,0.0
366174248.0,323.0,322.0,0.0,0.0
366175904.0,324.0,323.0,0.0,0.0
366177560.0,323.0,323.0,1.0,0.0
366179216.0,322.0,323.0,1.0,0.0
366180872.0,321.0,324.0,1.0,0.0
366182528.0,323.0,324.0,1.0,0.0
366184184.0,324.0,326.0,1.0,0.0
366185844.0,320.0,324.0,1.0,0.0
366187500.0,319.0,323.0,1.0,0.0
366189156.0,320.0,322.0,1.0,0.0
366190812.0,319.0,321.0,1.0,0.0
366192468.0,321.0,321.0,1.0,0.0
366194124.0,323.0,321.0,1.0,0.0
366195780.0,325.0,322.0,1.0,0.0
366197440.0,324.0,323.0,1.0,0.0
366199096.0,323.0,325.0,1.0,0.0
366200752.0,323.0,325.0,1.0,0.0
366202408.0,322.0,325.0,1.0,0.0
366204064.0,320.0,324.0,1.0,0.0
366205720.0,320.0,324.0,1.0,0.0
366207376.0,320.0,323.0,1.0,0.0
366209040.0,320.0,323.0,1.0,0.0
366210692.0,322.0,321.0,1.0,0.0
366212348.0,323.0,320.0,1.0,0.0
366214004.0,322.0,321.0,1.0,0.0
366215660.0,324.0,324.0,1.0,0.0
366217316.0,327.0,326.0,1.0,0.0
366218972.0,326.0,325.0,1.0,0.0
366220632.0,323.0,323.0,1.0,0.0
366222288.0,320.0,324.0,1.0,0.0
366223944.0,322.0,325.0,1.0,0.0
366225600.0,321.0,324.0,1.0,0.0
366227256.0,319.0,323.0,1.0,0.0
366228912.0,321.0,322.0,1.0,0.0
366230568.0,321.0,322.0,1.0,0.0
366232228.0,321.0,322.0,1.0,0.0
366233884.0,322.0,323.0,1.0,0.0
366235540.0,325.0,322.0,1.0,0.0
366237196.0,323.0,322.0,1.0,0.0
366238852.0,320.0,324.0,1.0,0.0
366240508.0,321.0,324.0,1.0,0.0
366242164.0,325.0,324.0,1.0,0.0
366243824.0,323.0,324.0,1.0,0.0
366245480.0,321.0,324.0,1.0,0.0
366247136.0,321.0,323.0,1.0,0.0
366248792.0,324.0,323.0,1.0,0.0
366250448.0,327.0,321.0,1.0,0.0
366252104.0,326.0,322.0,1.0,0.0
366253760.0,321.0,321.0,1.0,0.0
366255420.0,320.0,322.0,1.0,0.0
366257076.0,321.0,322.0,1.0,0.0
366258732.0,311.0,323.0,0.0,0.0
366260388.0,316.0,324.0,0.0,0.0
366262044.0,323.0,325.0,0.0,0.0
366263700.0,324.0,324.0,0.0,0.0
366265364.0,324.0,325.0,0.0,0.0
366267012.0,325.0,321.0,0.0,0.0
366268668.0,323.0,322.0,0.0,0.0
366270328.0,320.0,322.0,0.0,0.0
366271984.0,322.0,321.0,0.0,0.0
366273640.0,324.0,322.0,0.0,0.0
366275296.0,322.0,322.0,0.0,0.0
366276956.0,320.0,323.0,0.0,0.0
366278608.0,323.0,324.0,0.0,0.0
366280268.0,324.0,324.0,0.0,0.0
366281924.0,323.0,326.0,0.0,0.0
366283580.0,325.0,327.0,0.0,0.0
366285236.0,322.0,325.0,0.0,0.0
366286892.0,320.0,323.0,0.0,0.0
366288548.0,320.0,323.0,0.0,0.0
366290204.0,321.0,322.0,0.0,0.0
366291864.0,323.0,321.0,0.0,0.0
366293520.0,324.0,320.0,0.0,0.0
366295176.0,323.0,321.0,0.0,0.0
366296832.0,324.0,322.0,0.0,0.0
366298488.0,321.0,323.0,0.0,0.0
366300144.0,322.0,324.0,0.0,0.0
366301800.0,324.0,327.0,0.0,0.0
366303460.0,321.0,325.0,0.0,0.0
366305116.0,321.0,324.0,0.0,0.0
366306772.0,320.0,324.0,0.0,0.0
366308428.0,320.0,323.0,0.0,0.0
366310084.0,322.0,322.0,0.0,0.0
366311740.0,321.0,321.0,0.0,0.0
366313400.0,322.0,320.0,0.0,0.0
366315052.0,322.0,320.0,0.0,0.0
366316712.0,323.0,321.0,0.0,0.0
366318368.0,322.0,322.0,0.0,0.0
366320024.0,324.0,324.0,0.0,0.0
366321688.0,322.0,324.0,0.0,0.0
366323336.0,322.0,325.0,0.0,0.0
366324992.0,321.0,324.0,0.0,0.0
366326652.0,320.0,322.0,0.0,0.0
366328308.0,319.0,323.0,0.0,0.0
366329964.0,321.0,322.0,0.0,0.0
366331620.0,323.0,322.0,0.0,0.0
366333276.0,323.0,322.0,0.0,0.0
366334932.0,324.0,322.0,0.0,0.0
366336588.0,323.0,323.0,0.0,0.0
366338248.0,321.0,324.0,0.0,0.0
366339904.0,325.0,324.0,0.0,0.0
366341560.0,324.0,323.0,0.0,0.0
366343216.0,321.0,323.0,0.0,0.0
366344872.0,320.0,325.0,0.0,0.0
366346528.0,320.0,325.0,0.0,0.0
366348184.0,320.0,324.0,0.0,0.0
366349840.0,324.0,325.0,0.0,0.0
366351496.0,322.0,322.0,0.0,0.0
366353156.0,322.0,321.0,0.0,0.0
366354812.0,326.0,322.0,0.0,0.0
366356468.0,323.0,322.0,0.0,0.0
366358124.0,323.0,324.0,0.0,0.0
366359780.0,324.0,325.0,0.0,0.0
366361436.0,322.0,324.0,0.0,0.0
366363096.0,321.0,324.0,0.0,0.0
366364752.0,321.0,324.0,0.0,0.0
366366408.0,323.0,327.0,0.0,0.0
366368064.0,321.0,324.0,0.0,0.0
366369720.0,321.0,322.0,0.0,0.0
366371376.0,321.0,321.0,0.0,0.0
366373032.0,320.0,321.0,0.0,0.0
366374692.0,322.0,321.0,0.0,0.0
366376348.0,322.0,322.0,0.0,0.0
366378012.0,324.0,323.0,0.0,0.0
366379660.0,323.0,323.0,0.0,0.0
366381316.0,323.0,324.0,0.0,0.0
366382976.0,323.0,324.0,0.0,0.0
366384628.0,322.0,324.0,0.0,0.0
366386288.0,321.0,325.0,0.0,0.0
366387944.0,320.0,324.0,0.0,0.0
366389600.0,319.0,322.0,0.0,0.0
366391256.0,322.0,320.0,0.0,0.0
366392912.0,322.0,320.0,0.0,0.0
366394572.0,322.0,322.0,0.0,0.0
366396224.0,323.0,322.0,0.0,0.0
366397884.0,321.0,323.0,0.0,0.0
366399540.0,323.0,325.0,0.0,0.0
366401196.0,324.0,324.0,0.0,0.0
366402852.0,325.0,327.0,0.0,0.0
366404508.0,324.0,326.0,0.0,0.0
366406164.0,321.0,325.0,0.0,0.0
366407820.0,320.0,324.0,0.0,0.0
366409480.0,320.0,322.0,0.0,0.0
366411136.0,321.0,322.0,0.0,0.0
366412792.0,322.0,321.0,0.0,0.0
366414448.0,322.0,321.0,0.0,0.0
366416104.0,326.0,324.0,0.0,0.0
366417764.0,326.0,324.0,0.0,0.0
366419420.0,322.0,323.0,0.0,0.0
366421072.0,323.0,325.0,0.0,0.0
366422732.0,321.0,323.0,0.0,0.0
366424388.0,321.0,324.0,0.0,0.0
366426044.0,322.0,324.0,0.0,0.0
366427700.0,320.0,324.0,0.0,0.0
366429356.0,320.0,322.0,0.0,0.0
366431012.0,321.0,321.0,0.0,0.0
366432668.0,321.0,323.0,0.0,0.0
366434332.0,322.0,321.0,0.0,0.0
366435984.0,324.0,321.0,0.0,0.0
366437640.0,323.0,323.0,0.0,0.0
366439296.0,323.0,323.0,0.0,0.0
366440952.0,322.0,325.0,0.0,0.0
366442608.0,322.0,325.0,0.0,0.0
366444268.0,321.0,324.0,0.0,0.0
366445920.0,321.0,324.0,0.0,0.0
366447580.0,319.0,323.0,0.0,0.0
366449236.0,320.0,324.0,0.0,0.0
366450892.0,321.0,322.0,0.0,0.0
366452548.0,322.0,321.0,0.0,0.0
366454208.0,323.0,321.0,0.0,0.0
366455860.0,325.0,320.0,0.0,0.0
366457520.0,322.0,322.0,0.0,0.0
366459176.0,322.0,323.0,0.0,0.0
366460832.0,322.0,325.0,0.0,0.0
366462488.0,322.0,325.0,0.0,0.0
366464144.0,323.0,325.0,0.0,0.0
366465800.0,322.0,324.0,0.0,0.0
366467456.0,322.0,326.0,0.0,0.0
366469112.0,319.0,320.0,0.0,0.0
366470772.0,320.0,320.0,0.0,0.0
366472428.0,320.0,321.0,0.0,0.0
366474084.0,320.0,322.0,0.0,0.0
366475740.0,323.0,322.0,0.0,0.0
366477396.0,325.0,322.0,0.0,0.0
366479056.0,324.0,323.0,0.0,0.0
366480712.0,323.0,324.0,0.0,0.0
366482368.0,324.0,327.0,0.0,0.0
366484024.0,324.0,327.0,0.0,0.0
366485680.0,321.0,325.0,0.0,0.0
366487336.0,319.0,324.0,0.0,0.0
366488992.0,319.0,323.0,0.0,0.0
366490652.0,320.0,322.0,0.0,0.0
366492308.0,321.0,321.0,0.0,0.0
366493964.0,322.0,321.0,0.0,0.0
366495620.0,322.0,322.0,0.0,0.0
366497276.0,324.0,322.0,1.0,0.0
366498932.0,324.0,322.0,1.0,0.0
366500588.0,324.0,326.0,1.0,0.0
366502248.0,325.0,327.0,1.0,0.0
366503904.0,321.0,326.0,1.0,0.0
366505560.0,321.0,326.0,1.0,0.0
366507216.0,322.0,322.0,1.0,0.0
366508872.0,321.0,322.0,1.0,0.0
366510528.0,320.0,322.0,1.0,0.0
366512184.0,320.0,321.0,1.0,0.0
366513840.0,321.0,320.0,1.0,0.0
366515496.0,321.0,322.0,1.0,0.0
366517156.0,323.0,322.0,1.0,0.0
366518812.0,324.0,322.0,1.0,0.0
366520468.0,325.0,323.0,1.0,0.0
366522124.0,323.0,325.0,1.0,0.0
366523780.0,321.0,324.0,1.0,0.0
366525436.0,321.0,325.0,1.0,0.0
366527092.0,322.0,324.0,1.0,0.0
366528752.0,320.0,323.0,1.0,0.0
366530408.0,319.0,322.0,1.0,0.0
366532064.0,322.0,324.0,1.0,0.0
366533720.0,324.0,323.0,1.0,0.0
366535376.0,323.0,321.0,1.0,0.0
366537036.0,322.0,321.0,1.0,0.0
366538688.0,324.0,323.0,1.0,0.0
366540348.0,324.0,324.0,1.0,0.0
366542004.0,323.0,324.0,1.0,0.0
366543660.0,323.0,326.0,1.0,0.0
366545316.0,321.0,324.0,1.0,0.0
366546972.0,319.0,324.0,1.0,0.0
366548628.0,321.0,325.0,1.0,0.0
366550288.0,325.0,323.0,1.0,0.0
366551944.0,320.0,321.0,1.0,0.0
366553600.0,320.0,322.0,1.0,0.0
366555256.0,323.0,322.0,1.0,0.0
366556912.0,325.0,321.0,1.0,0.0
366558568.0,324.0,322.0,1.0,0.0
366560224.0,324.0,323.0,1.0,0.0
366561880.0,320.0,324.0,1.0,0.0
366563540.0,320.0,324.0,1.0,0.0
366565196.0,322.0,325.0,1.0,0.0
366566852.0,324.0,324.0,1.0,0.0
366568508.0,321.0,324.0,1.0,0.0
366570164.0,319.0,323.0,1.0,0.0
366571824.0,320.0,319.0,1.0,0.0
366573480.0,320.0,320.0,1.0,0.0
366575136.0,321.0,321.0,1.0,0.0
366576792.0,323.0,322.0,1.0,0.0
366578448.0,324.0,322.0,1.0,0.0
366580104.0,324.0,324.0,1.0,0.0
366581768.0,323.0,325.0,1.0,0.0
366583416.0,325.0,328.0,1.0,0.0
366585076.0,322.0,325.0,1.0,0.0
366586732.0,321.0,325.0,1.0,0.0
366588388.0,321.0,324.0,1.0,0.0
366590044.0,322.0,322.0,1.0,0.0
366591700.0,320.0,321.0,1.0,0.0
366593356.0,320.0,320.0,1.0,0.0
366595012.0,324.0,321.0,1.0,0.0
366596668.0,323.0,321.0,1.0,0.0
366598328.0,320.0,324.0,1.0,0.0
366599984.0,323.0,326.0,1.0,0.0
366601640.0,323.0,325.0,1.0,0.0
366603296.0,326.0,325.0,1.0,0.0
366604952.0,325.0,325.0,1.0,0.0
366606608.0,325.0,324.0,1.0,0.0
366608264.0,320.0,324.0,1.0,0.0
366609924.0,322.0,323.0,1.0,0.0
366611580.0,320.0,322.0,1.0,0.0
366613236.0,313.0,321.0,1.0,0.0
366614892.0,320.0,322.0,1.0,0.0
366616548.0,327.0,324.0,1.0,0.0
366618208.0,324.0,322.0,1.0,0.0
366619864.0,324.0,323.0,1.0,0.0
366621516.0,326.0,323.0,1.0,0.0
366623176.0,323.0,324.0,0.0,0.0
366624832.0,322.0,325.0,0.0,0.0
366626488.0,321.0,326.0,0.0,0.0
366628144.0,322.0,323.0,0.0,0.0
366629800.0,322.0,323.0,0.0,0.0
366631456.0,317.0,321.0,0.0,0.0
366633116.0,318.0,322.0,0.0,0.0
366634772.0,322.0,321.0,0.0,0.0
366636428.0,324.0,320.0,0.0,0.0
366638092.0,325.0,321.0,0.0,0.0
366639740.0,325.0,323.0,0.0,0.0
366641396.0,323.0,324.0,0.0,0.0
366643056.0,322.0,325.0,0.0,0.0
366644712.0,322.0,325.0,0.0,0.0
366646368.0,321.0,325.0,0.0,0.0
366648024.0,321.0,324.0,0.0,0.0
366649680.0,320.0,322.0,0.0,0.0
366651336.0,320.0,322.0,0.0,0.0
366652992.0,323.0,321.0,0.0,0.0
366654652.0,323.0,321.0,0.0,0.0
366656304.0,324.0,322.0,0.0,0.0
366657964.0,322.0,322.0,0.0,0.0
366659620.0,321.0,322.0,0.0,0.0
366661276.0,324.0,324.0,0.0,0.0
366662932.0,323.0,324.0,0.0,0.0
366664588.0,322.0,326.0,0.0,0.0
366666244.0,323.0,328.0,0.0,0.0
366667900.0,320.0,324.0,0.0,0.0
366669560.0,321.0,323.0,0.0,0.0
366671216.0,322.0,322.0,0.0,0.0
366672872.0,322.0,321.0,0.0,0.0
366674528.0,321.0,321.0,0.0,0.0
366676184.0,321.0,321.0,0.0,0.0
366677840.0,324.0,322.0,0.0,0.0
366679500.0,324.0,323.0,0.0,0.0
366681156.0,322.0,324.0,0.0,0.0
366682812.0,323.0,326.0,0.0,0.0
366684468.0,323.0,324.0,0.0,0.0
366686124.0,322.0,325.0,0.0,0.0
366687780.0,321.0,324.0,0.0,0.0
366689440.0,320.0,323.0,0.0,0.0
366691092.0,322.0,323.0,0.0,0.0
366692752.0,321.0,322.0,0.0,0.0
366694416.0,321.0,321.0,0.0,0.0
366696064.0,321.0,321.0,0.0,0.0
366697720.0,322.0,322.0,0.0,0.0
366699376.0,324.0,322.0,0.0,0.0
366701032.0,324.0,323.0,0.0,0.0
366702688.0,322.0,324.0,0.0,0.0
366704348.0,322.0,324.0,0.0,0.0
366706004.0,322.0,324.0,0.0,0.0
366707660.0,320.0,324.0,0.0,0.0
366709316.0,320.0,324.0,0.0,0.0
366710972.0,321.0,323.0,0.0,0.0
366712628.0,321.0,322.0,0.0,0.0
366714288.0,321.0,321.0,0.0,0.0
366715944.0,323.0,321.0,0.0,0.0
366717600.0,324.0,322.0,0.0,0.0
366719256.0,326.0,322.0,0.0,0.0
366720912.0,323.0,323.0,0.0,0.0
366722568.0,322.0,325.0,0.0,0.0
366724224.0,322.0,325.0,0.0,0.0
366725880.0,322.0,326.0,0.0,0.0
366727536.0,320.0,323.0,0.0,0.0
366729196.0,319.0,324.0,0.0,0.0
366730852.0,320.0,323.0,0.0,0.0
366732508.0,323.0,326.0,0.0,0.0
366734164.0,324.0,323.0,0.0,0.0
366735820.0,322.0,319.0,0.0,0.0
366737480.0,325.0,319.0,0.0,0.0
366739132.0,323.0,322.0,0.0,0.0
366740788.0,323.0,323.0,0.0,0.0
366742448.0,322.0,324.0,0.0,0.0
366744104.0,320.0,324.0,0.0,0.0
366745760.0,320.0,325.0,0.0,0.0
366747416.0,321.0,325.0,0.0,0.0
366749072.0,321.0,326.0,0.0,0.0
366750740.0,321.0,322.0,0.0,0.0
366752388.0,321.0,322.0,0.0,0.0
366754044.0,321.0,322.0,0.0,0.0
366755700.0,324.0,320.0,0.0,0.0
366757356.0,322.0,321.0,0.0,0.0
366759012.0,323.0,322.0,0.0,0.0
366760668.0,324.0,324.0,0.0,0.0
366762324.0,324.0,324.0,0.0,0.0
366763984.0,323.0,325.0,0.0,0.0
366765640.0,322.0,324.0,0.0,0.0
366767296.0,319.0,324.0,0.0,0.0
366768952.0,319.0,324.0,0.0,0.0
366770608.0,320.0,322.0,0.0,0.0
366772264.0,323.0,322.0,0.0,0.0
366773924.0,322.0,322.0,0.0,0.0
366775580.0,321.0,322.0,0.0,0.0
366777236.0,321.0,320.0,0.0,0.0
366778892.0,324.0,322.0,0.0,0.0
366780548.0,324.0,323.0,0.0,0.0
366782204.0,325.0,326.0,0.0,0.0
366783860.0,324.0,326.0,0.0,0.0
366785516.0,323.0,324.0,0.0,0.0
366787176.0,321.0,324.0,0.0,0.0
366788832.0,321.0,325.0,0.0,0.0
366790488.0,320.0,323.0,0.0,0.0
366792144.0,321.0,322.0,0.0,0.0
366793800.0,321.0,321.0,0.0,0.0
366795456.0,321.0,321.0,0.0,0.0
366797112.0,322.0,322.0,0.0,0.0
366798772.0,324.0,325.0,0.0,0.0
366800428.0,327.0,323.0,0.0,0.0
366802084.0,325.0,323.0,0.0,0.0
366803740.0,321.0,326.0,0.0,0.0
366805396.0,319.0,325.0,0.0,0.0
366807060.0,321.0,325.0,0.0,0.0
366808708.0,322.0,322.0,0.0,0.0
366810368.0,320.0,322.0,0.0,0.0
366812024.0,320.0,322.0,0.0,0.0
366813680.0,318.0,321.0,0.0,0.0
366815336.0,322.0,321.0,0.0,0.0
366816992.0,323.0,321.0,0.0,0.0
366818648.0,324.0,321.0,0.0,0.0
366820308.0,325.0,323.0,0.0,0.0
366821964.0,322.0,324.0,0.0,0.0
366823620.0,322.0,324.0,0.0,0.0
366825276.0,322.0,325.0,0.0,0.0
366826932.0,321.0,325.0,0.0,0.0
366828588.0,320.0,325.0,0.0,0.0
366830244.0,319.0,324.0,0.0,0.0
366831904.0,319.0,322.0,0.0,0.0
366833560.0,321.0,321.0,0.0,0.0
366835216.0,322.0,322.0,0.0,0.0
366836872.0,322.0,321.0,0.0,0.0
366838528.0,324.0,321.0,0.0,0.0
366840184.0,323.0,323.0,0.0,0.0
366841840.0,323.0,323.0,0.0,0.0
366843496.0,324.0,325.0,0.0,0.0
366845152.0,325.0,326.0,0.0,0.0
366846812.0,322.0,325.0,0.0,0.0
366848468.0,322.0,328.0,0.0,0.0
366850124.0,323.0,326.0,0.0,0.0
366851780.0,321.0,322.0,0.0,0.0
366853436.0,321.0,322.0,0.0,0.0
366855096.0,320.0,321.0,0.0,0.0
366856752.0,321.0,321.0,0.0,0.0
366858408.0,324.0,322.0,0.0,0.0
366860064.0,325.0,322.0,0.0,0.0
366861720.0,324.0,324.0,0.0,0.0
366863384.0,323.0,324.0,0.0,0.0
366865032.0,320.0,324.0,0.0,0.0
366866688.0,326.0,325.0,0.0,0.0
366868348.0,322.0,323.0,0.0,0.0
366870004.0,320.0,323.0,0.0,0.0
366871660.0,320.0,323.0,0.0,0.0
366873316.0,318.0,322.0,0.0,0.0
366874972.0,320.0,321.0,0.0,0.0
366876628.0,322.0,321.0,0.0,0.0
366878284.0,322.0,322.0,0.0,0.0
366879940.0,324.0,321.0,0.0,0.0
366881600.0,323.0,323.0,0.0,0.0
366883256.0,324.0,324.0,0.0,0.0
366884912.0,323.0,325.0,0.0,0.0
366886568.0,323.0,325.0,0.0,0.0
366888224.0,320.0,324.0,0.0,0.0
366889880.0,322.0,324.0,0.0,0.0
366891540.0,319.0,323.0,0.0,0.0
366893196.0,321.0,322.0,0.0,0.0
366894852.0,322.0,322.0,0.0,0.0
366896508.0,321.0,321.0,0.0,0.0
366898164.0,323.0,322.0,1.0,0.0
366899820.0,324.0,320.0,1.0,0.0
366901476.0,323.0,324.0,1.0,0.0
366903132.0,323.0,324.0,1.0,0.0
366904792.0,323.0,324.0,1.0,0.0
366906448.0,323.0,324.0,1.0,0.0
366908104.0,321.0,325.0,1.0,0.0
366909760.0,320.0,324.0,1.0,0.0
366911416.0,319.0,322.0,1.0,0.0
366913072.0,320.0,322.0,1.0,0.0
366914728.0,322.0,322.0,1.0,0.0
366916388.0,325.0,323.0,1.0,0.0
366918044.0,322.0,322.0,1.0,0.0
366919708.0,323.0,323.0,1.0,0.0
366921356.0,324.0,323.0,1.0,0.0
366923012.0,325.0,322.0,1.0,0.0
366924668.0,323.0,325.0,1.0,0.0
366926328.0,322.0,325.0,1.0,0.0
366927984.0,320.0,325.0,1.0,0.0
366929640.0,319.0,324.0,1.0,0.0
366931296.0,320.0,323.0,1.0,0.0
366932952.0,323.0,325.0,1.0,0.0
366934608.0,322.0,322.0,1.0,0.0
366936264.0,321.0,322.0,1.0,0.0
366937924.0,322.0,321.0,1.0,0.0
366939580.0,321.0,320.0,1.0,0.0
366941236.0,322.0,322.0,1.0,0.0
366942892.0,324.0,323.0,1.0,0.0
366944548.0,326.0,324.0,1.0,0.0
366946204.0,325.0,324.0,1.0,0.0
366947860.0,320.0,324.0,1.0,0.0
366949520.0,320.0,324.0,1.0,0.0
366951176.0,320.0,324.0,1.0,0.0
366952832.0,322.0,323.0,1.0,0.0
366954488.0,322.0,321.0,1.0,0.0
366956144.0,320.0,322.0,1.0,0.0
366957800.0,320.0,322.0,1.0,0.0
366959456.0,323.0,321.0,1.0,0.0
366961112.0,324.0,322.0,1.0,0.0
366962768.0,324.0,323.0,1.0,0.0
366964428.0,324.0,324.0,1.0,0.0
366966084.0,322.0,324.0,1.0,0.0
366967740.0,321.0,324.0,1.0,0.0
366969396.0,320.0,324.0,1.0,0.0
366971052.0,318.0,324.0,1.0,0.0
366972708.0,319.0,323.0,1.0,0.0
366974368.0,320.0,321.0,1.0,0.0
366976028.0,322.0,321.0,1.0,0.0
366977680.0,322.0,322.0,1.0,0.0
366979336.0,327.0,320.0,1.0,0.0
366980992.0,323.0,323.0,1.0,0.0
366982648.0,328.0,326.0,1.0,0.0
366984304.0,327.0,326.0,1.0,0.0
366985964.0,323.0,325.0,1.0,0.0
366987620.0,319.0,325.0,1.0,0.0
366989276.0,320.0,325.0,1.0,0.0
366990932.0,318.0,324.0,1.0,0.0
366992588.0,323.0,323.0,1.0,0.0
366994244.0,326.0,321.0,1.0,0.0
366995904.0,323.0,321.0,1.0,0.0
366997560.0,318.0,321.0,1.0,0.0
366999216.0,324.0,324.0,1.0,0.0
367000872.0,325.0,323.0,0.0,0.0
367002528.0,325.0,324.0,0.0,0.0
367004184.0,326.0,325.0,0.0,0.0
367005840.0,321.0,325.0,0.0,0.0
367007496.0,323.0,325.0,0.0,0.0
367009152.0,313.0,323.0,0.0,0.0
367010812.0,317.0,323.0,0.0,0.0
367012468.0,318.0,323.0,0.0,0.0
367014124.0,322.0,322.0,0.0,0.0
367015780.0,324.0,321.0,0.0,0.0
367017436.0,325.0,320.0,0.0,0.0
367019092.0,323.0,321.0,0.0,0.0
367020748.0,321.0,323.0,0.0,0.0
367022408.0,321.0,322.0,0.0,0.0
367024064.0,323.0,324.0,0.0,0.0
367025720.0,324.0,324.0,0.0,0.0
367027376.0,323.0,325.0,0.0,0.0
367029032.0,322.0,325.0,0.0,0.0
367030688.0,319.0,324.0,0.0,0.0
367032348.0,320.0,323.0,0.0,0.0
367034004.0,323.0,323.0,0.0,0.0
367035660.0,322.0,321.0,0.0,0.0
367037316.0,322.0,321.0,0.0,0.0
367038972.0,323.0,321.0,0.0,0.0
367040628.0,322.0,322.0,0.0,0.0
367042284.0,324.0,322.0,0.0,0.0
367043940.0,323.0,323.0,0.0,0.0
367045596.0,322.0,324.0,0.0,0.0
367047256.0,322.0,325.0,0.0,0.0
367048912.0,325.0,328.0,0.0,0.0
367050568.0,321.0,324.0,0.0,0.0
367052224.0,320.0,324.0,0.0,0.0
367053880.0,321.0,322.0,0.0,0.0
367055540.0,321.0,322.0,0.0,0.0
367057192.0,320.0,321.0,0.0,0.0
367058852.0,323.0,321.0,0.0,0.0
367060508.0,324.0,322.0,0.0,0.0
367062164.0,324.0,322.0,0.0,0.0
367063820.0,323.0,324.0,0.0,0.0
367065476.0,322.0,326.0,0.0,0.0
367067136.0,325.0,325.0,0.0,0.0
367068792.0,321.0,325.0,0.0,0.0
367070448.0,321.0,324.0,0.0,0.0
367072104.0,321.0,323.0,0.0,0.0
367073760.0,320.0,322.0,0.0,0.0
367075416.0,320.0,321.0,0.0,0.0
367077072.0,320.0,321.0,0.0,0.0
367078732.0,321.0,322.0,0.0,0.0
367080388.0,324.0,322.0,0.0,0.0
367082044.0,324.0,322.0,0.0,0.0
367083700.0,324.0,324.0,0.0,0.0
367085356.0,323.0,325.0,0.0,0.0
367087012.0,322.0,325.0,0.0,0.0
367088668.0,322.0,325.0,0.0,0.0
367090328.0,321.0,325.0,0.0,0.0
367091984.0,320.0,324.0,0.0,0.0
367093640.0,322.0,320.0,0.0,0.0
367095296.0,320.0,320.0,0.0,0.0
367096952.0,322.0,320.0,0.0,0.0
367098608.0,325.0,323.0,0.0,0.0
367100264.0,325.0,324.0,0.0,0.0
367101920.0,322.0,323.0,0.0,0.0
367103580.0,324.0,323.0,0.0,0.0
367105236.0,324.0,325.0,0.0,0.0
367106892.0,321.0,326.0,0.0,0.0
367108548.0,321.0,326.0,0.0,0.0
367110204.0,321.0,323.0,0.0,0.0
367111860.0,321.0,323.0,0.0,0.0
367113516.0,320.0,322.0,0.0,0.0
367115176.0,322.0,324.0,0.0,0.0
367116832.0,325.0,323.0,0.0,0.0
367118488.0,322.0,321.0,0.0,0.0
367120144.0,323.0,322.0,0.0,0.0
367121800.0,320.0,322.0,0.0,0.0
367123464.0,323.0,323.0,0.0,0.0
367125112.0,324.0,325.0,0.0,0.0
367126768.0,321.0,325.0,0.0,0.0
367128428.0,322.0,325.0,0.0,0.0
367130084.0,322.0,324.0,0.0,0.0
367131740.0,321.0,323.0,0.0,0.0
367133396.0,321.0,322.0,0.0,0.0
367135052.0,319.0,321.0,0.0,0.0
367136708.0,322.0,321.0,0.0,0.0
367138364.0,321.0,320.0,0.0,0.0
367140020.0,321.0,321.0,0.0,0.0
367141680.0,323.0,321.0,0.0,0.0
367143336.0,323.0,323.0,0.0,0.0
367144992.0,323.0,324.0,0.0,0.0
367146648.0,322.0,325.0,0.0,0.0
367148304.0,321.0,325.0,0.0,0.0
367149960.0,321.0,325.0,0.0,0.0
367151620.0,320.0,325.0,0.0,0.0
367153276.0,320.0,323.0,0.0,0.0
367154932.0,323.0,321.0,0.0,0.0
367156588.0,322.0,321.0,0.0,0.0
367158244.0,321.0,322.0,0.0,0.0
367159900.0,323.0,321.0,0.0,0.0
367161556.0,323.0,322.0,0.0,0.0
367163216.0,323.0,324.0,0.0,0.0
367164872.0,324.0,326.0,0.0,0.0
367166528.0,326.0,326.0,0.0,0.0
367168184.0,325.0,326.0,0.0,0.0
367169840.0,322.0,325.0,0.0,0.0
367171496.0,320.0,324.0,0.0,0.0
367173152.0,320.0,323.0,0.0,0.0
367174808.0,320.0,322.0,0.0,0.0
367176468.0,321.0,321.0,0.0,0.0
367178124.0,322.0,321.0,0.0,0.0
367179788.0,323.0,322.0,0.0,0.0
367181436.0,323.0,323.0,0.0,0.0
367183092.0,326.0,324.0,0.0,0.0
367184748.0,324.0,323.0,0.0,0.0
367186404.0,321.0,324.0,0.0,0.0
367188064.0,323.0,325.0,0.0,0.0
367189720.0,320.0,324.0,0.0,0.0
367191376.0,321.0,324.0,0.0,0.0
367193032.0,320.0,323.0,0.0,0.0
367194688.0,320.0,321.0,0.0,0.0
367196344.0,321.0,322.0,0.0,0.0
367198004.0,318.0,321.0,0.0,0.0
367199660.0,323.0,322.0,0.0,0.0
367201316.0,323.0,322.0,0.0,0.0
367202972.0,321.0,322.0,0.0,0.0
367204628.0,323.0,323.0,0.0,0.0
367206284.0,325.0,324.0,0.0,0.0
367207940.0,322.0,325.0,0.0,0.0
367209596.0,321.0,324.0,0.0,0.0
367211256.0,321.0,324.0,0.0,0.0
367212912.0,321.0,324.0,0.0,0.0
367214568.0,320.0,324.0,0.0,0.0
367216224.0,320.0,321.0,0.0,0.0
367217880.0,321.0,321.0,0.0,0.0
367219536.0,323.0,321.0,0.0,0.0
367221196.0,324.0,322.0,0.0,0.0
367222852.0,324.0,322.0,0.0,0.0
367224508.0,324.0,323.0,0.0,0.0
367226164.0,323.0,324.0,0.0,0.0
367227820.0,322.0,324.0,0.0,0.0
367229476.0,318.0,325.0,0.0,0.0
367231132.0,321.0,325.0,0.0,0.0
367232792.0,324.0,326.0,0.0,0.0
367234448.0,320.0,321.0,0.0,0.0
367236112.0,323.0,321.0,0.0,0.0
367237760.0,322.0,321.0,0.0,0.0
367239416.0,320.0,321.0,0.0,0.0
367241072.0,324.0,322.0,0.0,0.0
367242728.0,324.0,323.0,0.0,0.0
367244384.0,323.0,325.0,0.0,0.0
367246044.0,323.0,324.0,0.0,0.0
367247700.0,322.0,324.0,0.0,0.0
367249356.0,324.0,327.0,0.0,0.0
367251012.0,321.0,324.0,1.0,0.0
367252668.0,320.0,323.0,1.0,0.0
367254324.0,320.0,323.0,1.0,0.0
367255984.0,321.0,322.0,1.0,0.0
367257636.0,322.0,321.0,1.0,0.0
367259296.0,322.0,321.0,1.0,0.0
367260952.0,324.0,320.0,1.0,0.0
367262608.0,322.0,322.0,1.0,0.0
367264264.0,322.0,323.0,1.0,0.0
367265920.0,325.0,324.0,1.0,0.0
367267576.0,321.0,325.0,1.0,0.0
367269232.0,321.0,325.0,1.0,0.0
367270892.0,320.0,325.0,1.0,0.0
367272548.0,321.0,324.0,1.0,0.0
367274204.0,322.0,324.0,1.0,0.0
367275860.0,320.0,321.0,1.0,0.0
367277516.0,319.0,320.0,1.0,0.0
367279176.0,322.0,321.0,1.0,0.0
367280832.0,324.0,321.0,1.0,0.0
367282488.0,324.0,322.0,1.0,0.0
367284144.0,326.0,328.0,1.0,0.0
367285800.0,326.0,328.0,1.0,0.0
367287456.0,324.0,325.0,1.0,0.0
367289112.0,322.0,323.0,1.0,0.0
367290772.0,321.0,324.0,1.0,0.0
367292436.0,320.0,323.0,1.0,0.0
367294084.0,320.0,322.0,1.0,0.0
367295740.0,321.0,322.0,1.0,0.0
367297396.0,322.0,322.0,1.0,0.0
367299052.0,324.0,324.0,1.0,0.0
367300708.0,324.0,322.0,1.0,0.0
367302364.0,323.0,322.0,1.0,0.0
367304024.0,324.0,324.0,1.0,0.0
367305680.0,323.0,324.0,1.0,0.0
367307336.0,322.0,324.0,1.0,0.0
367308992.0,321.0,324.0,1.0,0.0
367310648.0,320.0,325.0,1.0,0.0
367312304.0,318.0,323.0,1.0,0.0
367313964.0,319.0,323.0,1.0,0.0
367315616.0,323.0,324.0,1.0,0.0
367317276.0,323.0,322.0,1.0,0.0
367318932.0,325.0,321.0,1.0,0.0
367320588.0,324.0,322.0,1.0,0.0
367322244.0,322.0,322.0,1.0,0.0
367323900.0,324.0,323.0,1.0,0.0
367325556.0,322.0,324.0,1.0,0.0
367327216.0,321.0,324.0,1.0,0.0
367328872.0,319.0,325.0,1.0,0.0
367330528.0,320.0,325.0,1.0,0.0
367332184.0,323.0,324.0,1.0,0.0
367333840.0,321.0,323.0,1.0,0.0
367335496.0,321.0,322.0,1.0,0.0
367337152.0,321.0,322.0,1.0,0.0
367338808.0,320.0,321.0,1.0,0.0
367340468.0,321.0,322.0,1.0,0.0
367342124.0,319.0,322.0,1.0,0.0
367343780.0,324.0,323.0,1.0,0.0
367345436.0,326.0,323.0,1.0,0.0
367347092.0,328.0,325.0,1.0,0.0
367348756.0,322.0,325.0,1.0,0.0
367350404.0,317.0,324.0,1.0,0.0
367352064.0,320.0,325.0,1.0,0.0
367353720.0,320.0,323.0,1.0,0.0
367355376.0,322.0,322.0,1.0,0.0
367357032.0,323.0,322.0,1.0,0.0
367358688.0,322.0,321.0,1.0,0.0
367360344.0,326.0,321.0,1.0,0.0
367362000.0,325.0,322.0,1.0,0.0
367363656.0,324.0,324.0,1.0,0.0
367365316.0,326.0,327.0,1.0,0.0
367366972.0,319.0,327.0,1.0,0.0
367368628.0,319.0,327.0,1.0,0.0
367370284.0,324.0,324.0,1.0,0.0
367371940.0,318.0,323.0,1.0,0.0
367373600.0,320.0,323.0,1.0,0.0
367375256.0,323.0,322.0,1.0,0.0
367376912.0,322.0,321.0,0.0,0.0
367378568.0,320.0,321.0,0.0,0.0
367380224.0,320.0,321.0,0.0,0.0
367381880.0,326.0,323.0,0.0,0.0
367383536.0,327.0,324.0,0.0,0.0
367385196.0,324.0,324.0,0.0,0.0
367386852.0,322.0,324.0,0.0,0.0
367388508.0,320.0,324.0,0.0,0.0
367390164.0,322.0,325.0,0.0,0.0
367391820.0,320.0,324.0,0.0,0.0
367393476.0,321.0,324.0,0.0,0.0
367395132.0,322.0,323.0,0.0,0.0
367396788.0,321.0,321.0,0.0,0.0
367398448.0,322.0,322.0,0.0,0.0
367400104.0,323.0,322.0,0.0,0.0
367401760.0,323.0,322.0,0.0,0.0
367403416.0,324.0,322.0,0.0,0.0
367405080.0,325.0,323.0,0.0,0.0
367406728.0,324.0,324.0,0.0,0.0
367408388.0,322.0,325.0,0.0,0.0
367410040.0,321.0,325.0,0.0,0.0
367411700.0,322.0,325.0,0.0,0.0
367413356.0,320.0,324.0,0.0,0.0
367415012.0,322.0,326.0,0.0,0.0
367416668.0,323.0,323.0,0.0,0.0
367418324.0,322.0,321.0,0.0,0.0
367419980.0,323.0,320.0,0.0,0.0
367421636.0,324.0,321.0,0.0,0.0
367423296.0,323.0,320.0,0.0,0.0
367424952.0,321.0,322.0,0.0,0.0
367426608.0,322.0,325.0,0.0,0.0
367428264.0,323.0,325.0,0.0,0.0
367429920.0,322.0,324.0,0.0,0.0
367431576.0,322.0,326.0,0.0,0.0
367433232.0,322.0,326.0,0.0,0.0
367434892.0,320.0,324.0,0.0,0.0
367436548.0,320.0,321.0,0.0,0.0
367438204.0,322.0,320.0,0.0,0.0
367439860.0,323.0,322.0,0.0,0.0
367441516.0,324.0,322.0,0.0,0.0
367443172.0,325.0,321.0,0.0,0.0
367444832.0,323.0,323.0,0.0,0.0
367446488.0,322.0,324.0,0.0,0.0
367448144.0,320.0,325.0,0.0,0.0
367449800.0,321.0,325.0,0.0,0.0
367451456.0,321.0,325.0,0.0,0.0
367453112.0,321.0,325.0,0.0,0.0
367454772.0,322.0,322.0,0.0,0.0
367456428.0,323.0,321.0,0.0,0.0
367458084.0,321.0,321.0,0.0,0.0
367459740.0,320.0,321.0,0.0,0.0
367461404.0,322.0,321.0,0.0,0.0
367463052.0,324.0,321.0,0.0,0.0
367464708.0,325.0,323.0,0.0,0.0
367466364.0,324.0,324.0,0.0,0.0
367468020.0,321.0,325.0,0.0,0.0
367469676.0,321.0,325.0,0.0,0.0
367471336.0,322.0,325.0,0.0,0.0
367472992.0,321.0,325.0,0.0,0.0
367474648.0,320.0,323.0,0.0,0.0
367476304.0,320.0,322.0,0.0,0.0
367477960.0,321.0,322.0,0.0,0.0
367479616.0,323.0,321.0,0.0,0.0
367481272.0,323.0,322.0,0.0,0.0
367482932.0,325.0,324.0,0.0,0.0
367484588.0,325.0,324.0,0.0,0.0
367486244.0,321.0,323.0,0.0,0.0
367487900.0,321.0,324.0,0.0,0.0
367489556.0,321.0,326.0,0.0,0.0
367491212.0,322.0,326.0,0.0,0.0
367492872.0,322.0,323.0,0.0,0.0
367494528.0,321.0,323.0,0.0,0.0
367496184.0,320.0,323.0,0.0,0.0
367497840.0,321.0,321.0,0.0,0.0
367499496.0,325.0,324.0,0.0,0.0
367501152.0,323.0,321.0,0.0,0.0
367502808.0,323.0,321.0,0.0,0.0
367504464.0,323.0,323.0,0.0,0.0
367506124.0,323.0,323.0,0.0,0.0
367507780.0,321.0,324.0,0.0,0.0
367509436.0,322.0,324.0,0.0,0.0
367511092.0,322.0,324.0,0.0,0.0
367512748.0,321.0,324.0,0.0,0.0
367514404.0,320.0,324.0,0.0,0.0
367516060.0,320.0,322.0,0.0,0.0
367517724.0,320.0,322.0,0.0,0.0
367519376.0,320.0,321.0,0.0,0.0
367521032.0,322.0,321.0,0.0,0.0
367522688.0,326.0,322.0,0.0,0.0
367524344.0,328.0,322.0,0.0,0.0
367526004.0,325.0,324.0,0.0,0.0
367527656.0,322.0,325.0,0.0,0.0
367529316.0,318.0,325.0,0.0,0.0
367530972.0,320.0,326.0,0.0,0.0
367532628.0,321.0,324.0,0.0,0.0
367534284.0,320.0,324.0,0.0,0.0
367535940.0,321.0,323.0,0.0,0.0
367537596.0,322.0,321.0,0.0,0.0
367539252.0,322.0,321.0,0.0,0.0
367540912.0,323.0,322.0,0.0,0.0
367542568.0,325.0,322.0,0.0,0.0
367544224.0,323.0,321.0,0.0,0.0
367545880.0,321.0,323.0,0.0,0.0
367547536.0,323.0,325.0,0.0,0.0
367549192.0,325.0,328.0,0.0,0.0
367550848.0,320.0,324.0,0.0,0.0
367552508.0,321.0,325.0,0.0,0.0
367554164.0,321.0,324.0,0.0,0.0
367555820.0,321.0,324.0,0.0,0.0
367557476.0,321.0,321.0,0.0,0.0
367559132.0,321.0,321.0,0.0,0.0
367560788.0,323.0,321.0,0.0,0.0
367562444.0,325.0,320.0,0.0,0.0
367564100.0,323.0,322.0,0.0,0.0
367565760.0,326.0,326.0,0.0,0.0
367567416.0,322.0,325.0,0.0,0.0
367569072.0,319.0,325.0,0.0,0.0
367570728.0,321.0,325.0,0.0,0.0
367572384.0,321.0,323.0,0.0,0.0
367574044.0,322.0,323.0,0.0,0.0
367575696.0,321.0,322.0,0.0,0.0
367577356.0,322.0,321.0,0.0,0.0
367579012.0,323.0,321.0,0.0,0.0
367580668.0,323.0,322.0,0.0,0.0
367582324.0,323.0,322.0,0.0,0.0
367583980.0,322.0,323.0,0.0,0.0
367585640.0,322.0,324.0,0.0,0.0
367587292.0,325.0,321.0,0.0,0.0
367588952.0,323.0,323.0,0.0,0.0
367590608.0,322.0,326.0,0.0,0.0
367592264.0,321.0,326.0,0.0,0.0
367593920.0,322.0,324.0,0.0,0.0
367595576.0,321.0,323.0,0.0,0.0
367597232.0,319.0,321.0,0.0,0.0
367598888.0,321.0,321.0,0.0,0.0
367600548.0,320.0,321.0,0.0,0.0
367602204.0,322.0,322.0,0.0,0.0
367603860.0,324.0,322.0,0.0,0.0
367605516.0,323.0,323.0,0.0,0.0
367607172.0,323.0,324.0,0.0,0.0
367608828.0,324.0,323.0,0.0,0.0
367610484.0,322.0,324.0,0.0,0.0
367612144.0,321.0,325.0,0.0,0.0
367613800.0,320.0,325.0,0.0,0.0
367615456.0,322.0,326.0,0.0,0.0
367617112.0,322.0,322.0,0.0,0.0
367618768.0,321.0,321.0,0.0,0.0
367620424.0,322.0,321.0,0.0,0.0
367622080.0,324.0,322.0,0.0,0.0
367623736.0,323.0,322.0,0.0,0.0
367625396.0,324.0,322.0,0.0,0.0
367627052.0,323.0,324.0,0.0,0.0
367628708.0,323.0,325.0,0.0,0.0
367630364.0,322.0,325.0,0.0,0.0
367632024.0,324.0,327.0,1.0,0.0
367633680.0,322.0,325.0,1.0,0.0
367635336.0,320.0,324.0,1.0,0.0
367636992.0,321.0,322.0,1.0,0.0
367638648.0,320.0,321.0,1.0,0.0
367640304.0,323.0,322.0,1.0,0.0
367641960.0,324.0,322.0,1.0,0.0
367643616.0,324.0,322.0,1.0,0.0
367645272.0,324.0,323.0,1.0,0.0
367646932.0,322.0,324.0,1.0,0.0
367648588.0,321.0,324.0,1.0,0.0
367650244.0,322.0,325.0,1.0,0.0
367651900.0,321.0,325.0,1.0,0.0
367653556.0,321.0,324.0,1.0,0.0
367655212.0,320.0,323.0,1.0,0.0
367656868.0,320.0,323.0,1.0,0.0
367658528.0,320.0,321.0,1.0,0.0
367660184.0,324.0,321.0,1.0,0.0
367661840.0,325.0,321.0,1.0,0.0
367663496.0,323.0,321.0,1.0,0.0
367665160.0,326.0,325.0,1.0,0.0
367666808.0,325.0,325.0,1.0,0.0
367668468.0,323.0,325.0,1.0,0.0
367670120.0,323.0,326.0,1.0,0.0
367671780.0,322.0,324.0,1.0,0.0
367673436.0,318.0,324.0,1.0,0.0
367675092.0,319.0,323.0,1.0,0.0
367676748.0,320.0,322.0,1.0,0.0
367678404.0,321.0,322.0,1.0,0.0
367680060.0,322.0,323.0,1.0,0.0
367681720.0,323.0,324.0,1.0,0.0
367683376.0,326.0,321.0,1.0,0.0
367685032.0,325.0,322.0,1.0,0.0
367686688.0,323.0,323.0,1.0,0.0
367688344.0,322.0,324.0,1.0,0.0
367690000.0,323.0,324.0,1.0,0.0
367691656.0,322.0,325.0,1.0,0.0
367693316.0,319.0,324.0,1.0,0.0
367694972.0,320.0,324.0,1.0,0.0
367696628.0,320.0,323.0,1.0,0.0
367698284.0,320.0,322.0,1.0,0.0
367699940.0,322.0,322.0,1.0,0.0
367701596.0,324.0,321.0,1.0,0.0
367703252.0,326.0,320.0,1.0,0.0
367704912.0,325.0,322.0,1.0,0.0
367706568.0,324.0,324.0,1.0,0.0
367708224.0,325.0,325.0,1.0,0.0
367709880.0,319.0,324.0,1.0,0.0
367711536.0,317.0,325.0,1.0,0.0
367713192.0,319.0,325.0,1.0,0.0
367714852.0,322.0,324.0,1.0,0.0
367716508.0,322.0,323.0,1.0,0.0
367718160.0,323.0,322.0,1.0,0.0
367719820.0,322.0,322.0,1.0,0.0
367721484.0,324.0,321.0,1.0,0.0
367723132.0,325.0,321.0,1.0,0.0
367724788.0,326.0,322.0,1.0,0.0
367726444.0,324.0,326.0,1.0,0.0
367728100.0,325.0,326.0,1.0,0.0
367729760.0,317.0,326.0,1.0,0.0
367731416.0,320.0,329.0,1.0,0.0
367733072.0,323.0,326.0,1.0,0.0
367734728.0,321.0,323.0,1.0,0.0
367736384.0,318.0,322.0,1.0,0.0
367738040.0,322.0,322.0,1.0,0.0
367739696.0,324.0,321.0,1.0,0.0
367741356.0,324.0,322.0,1.0,0.0
367743012.0,325.0,321.0,1.0,0.0
367744668.0,325.0,323.0,1.0,0.0
367746324.0,325.0,324.0,1.0,0.0
367747980.0,326.0,326.0,1.0,0.0
367749636.0,323.0,325.0,1.0,0.0
367751292.0,322.0,325.0,1.0,0.0
367752952.0,320.0,325.0,1.0,0.0
367754608.0,320.0,324.0,0.0,0.0
367756264.0,320.0,323.0,0.0,0.0
367757920.0,321.0,322.0,0.0,0.0
367759576.0,321.0,322.0,0.0,0.0
367761232.0,322.0,322.0,0.0,0.0
367762888.0,323.0,321.0,0.0,0.0
367764548.0,324.0,322.0,0.0,0.0
367766204.0,324.0,323.0,0.0,0.0
367767860.0,324.0,323.0,0.0,0.0
367769516.0,323.0,325.0,0.0,0.0
367771172.0,322.0,325.0,0.0,0.0
367772828.0,322.0,323.0,0.0,0.0
367774488.0,320.0,325.0,0.0,0.0
367776144.0,322.0,324.0,0.0,0.0
367777808.0,320.0,323.0,0.0,0.0
367779456.0,319.0,322.0,0.0,0.0
367781112.0,320.0,322.0,0.0,0.0
367782768.0,321.0,322.0,0.0,0.0
367784424.0,324.0,322.0,0.0,0.0
367786080.0,325.0,323.0,0.0,0.0
367787736.0,324.0,323.0,0.0,0.0
367789396.0,323.0,324.0,0.0,0.0
367791052.0,322.0,326.0,0.0,0.0
367792708.0,320.0,324.0,0.0,0.0
367794364.0,320.0,323.0,0.0,0.0
367796020.0,320.0,323.0,0.0,0.0
367797676.0,324.0,325.0,0.0,0.0
367799332.0,325.0,324.0,0.0,0.0
367800992.0,323.0,321.0,0.0,0.0
367802648.0,322.0,321.0,0.0,0.0
367804304.0,322.0,322.0,0.0,0.0
367805960.0,322.0,323.0,0.0,0.0
367807616.0,324.0,324.0,0.0,0.0
367809272.0,324.0,324.0,0.0,0.0
367810928.0,322.0,325.0,0.0,0.0
367812588.0,322.0,325.0,0.0,0.0
367814244.0,322.0,325.0,0.0,0.0
367815900.0,322.0,326.0,0.0,0.0
367817556.0,320.0,323.0,0.0,0.0
367819212.0,321.0,322.0,0.0,0.0
367820868.0,322.0,322.0,0.0,0.0
367822524.0,322.0,321.0,0.0,0.0
367824184.0,323.0,321.0,0.0,0.0
367825840.0,324.0,322.0,0.0,0.0
367827496.0,321.0,324.0,0.0,0.0
367829152.0,323.0,325.0,0.0,0.0
367830808.0,326.0,325.0,0.0,0.0
367832464.0,324.0,325.0,0.0,0.0
367834132.0,318.0,323.0,0.0,0.0
367835780.0,319.0,323.0,0.0,0.0
367837436.0,319.0,322.0,0.0,0.0
367839092.0,320.0,322.0,0.0,0.0
367840748.0,322.0,322.0,0.0,0.0
367842404.0,322.0,320.0,0.0,0.0
367844060.0,324.0,322.0,0.0,0.0
367845720.0,324.0,322.0,0.0,0.0
367847372.0,324.0,323.0,0.0,0.0
367849032.0,323.0,324.0,0.0,0.0
367850688.0,321.0,325.0,0.0,0.0
367852344.0,320.0,326.0,0.0,0.0
367854000.0,320.0,324.0,0.0,0.0
367855656.0,321.0,323.0,0.0,0.0
367857316.0,322.0,323.0,0.0,0.0
367858972.0,320.0,321.0,0.0,0.0
367860628.0,321.0,320.0,0.0,0.0
367862284.0,321.0,321.0,0.0,0.0
367863940.0,323.0,323.0,0.0,0.0
367865596.0,326.0,325.0,0.0,0.0
367867256.0,324.0,324.0,0.0,0.0
367868908.0,322.0,324.0,0.0,0.0
367870564.0,321.0,325.0,0.0,0.0
367872224.0,322.0,325.0,0.0,0.0
367873880.0,320.0,324.0,0.0,0.0
367875536.0,321.0,323.0,0.0,0.0
367877192.0,322.0,322.0,0.0,0.0
367878848.0,319.0,322.0,0.0,0.0
367880504.0,320.0,321.0,0.0,0.0
367882164.0,325.0,323.0,0.0,0.0
367883820.0,322.0,321.0,0.0,0.0
367885476.0,325.0,321.0,0.0,0.0
367887132.0,324.0,323.0,0.0,0.0
367888788.0,323.0,323.0,0.0,0.0
367890456.0,322.0,325.0,0.0,0.0
367892104.0,321.0,325.0,0.0,0.0
367893760.0,321.0,325.0,0.0,0.0
367895416.0,321.0,324.0,0.0,0.0
367897072.0,322.0,323.0,0.0,0.0
367898728.0,321.0,322.0,0.0,0.0
367900384.0,321.0,322.0,0.0,0.0
367902040.0,319.0,322.0,0.0,0.0
367903700.0,321.0,320.0,0.0,0.0
367905356.0,320.0,320.0,0.0,0.0
367907012.0,324.0,322.0,0.0,0.0
367908668.0,325.0,324.0,0.0,0.0
367910324.0,325.0,324.0,0.0,0.0
367911980.0,324.0,325.0,0.0,0.0
367913636.0,320.0,325.0,0.0,0.0
367915296.0,322.0,327.0,0.0,0.0
367916952.0,321.0,323.0,0.0,0.0
367918608.0,320.0,322.0,0.0,0.0
367920264.0,320.0,322.0,0.0,0.0
367921920.0,321.0,321.0,0.0,0.0
367923576.0,322.0,322.0,0.0,0.0
367925232.0,323.0,322.0,0.0,0.0
367926888.0,325.0,323.0,0.0,0.0
