timestamp,Outer forearm sensor value (1),Inner forearm sensor value (2),left mouse button,right mouse button
102328568.0,338.0,323.0,0.0,0.0
102330224.0,339.0,322.0,0.0,0.0
102331880.0,338.0,326.0,0.0,0.0
102333536.0,337.0,327.0,0.0,0.0
102335192.0,334.0,325.0,0.0,0.0
102336852.0,334.0,323.0,0.0,0.0
102338508.0,329.0,322.0,0.0,0.0
102340164.0,325.0,320.0,0.0,0.0
102341820.0,319.0,319.0,0.0,0.0
102343476.0,328.0,319.0,0.0,0.0
102345132.0,332.0,320.0,0.0,0.0
102346788.0,336.0,322.0,0.0,0.0
102348448.0,339.0,323.0,0.0,0.0
102350104.0,341.0,325.0,0.0,0.0
102351760.0,341.0,327.0,0.0,0.0
102353416.0,339.0,326.0,0.0,0.0
102355072.0,335.0,326.0,0.0,0.0
102356728.0,331.0,323.0,0.0,0.0
102358384.0,329.0,322.0,0.0,0.0
102360040.0,327.0,320.0,0.0,0.0
102361700.0,330.0,322.0,0.0,0.0
102363356.0,327.0,320.0,0.0,0.0
102365012.0,332.0,321.0,0.0,0.0
102366668.0,339.0,323.0,0.0,0.0
102368324.0,338.0,325.0,0.0,0.0
102369980.0,341.0,326.0,0.0,0.0
102371636.0,340.0,324.0,0.0,0.0
102373296.0,338.0,325.0,0.0,0.0
102374952.0,335.0,326.0,0.0,0.0
102376608.0,331.0,324.0,0.0,0.0
102378264.0,329.0,323.0,0.0,0.0
102379920.0,327.0,320.0,0.0,0.0
102381584.0,328.0,319.0,0.0,0.0
102383236.0,331.0,321.0,0.0,0.0
102384892.0,330.0,321.0,0.0,0.0
102386548.0,333.0,322.0,0.0,0.0
102388204.0,338.0,323.0,0.0,0.0
102389860.0,341.0,324.0,0.0,0.0
102391516.0,339.0,324.0,0.0,0.0
102393172.0,338.0,325.0,0.0,0.0
102394832.0,335.0,325.0,0.0,0.0
102396484.0,333.0,323.0,0.0,0.0
102398144.0,330.0,322.0,0.0,0.0
102399800.0,326.0,321.0,0.0,0.0
102401456.0,328.0,320.0,0.0,0.0
102403112.0,327.0,319.0,0.0,0.0
102404768.0,328.0,319.0,0.0,0.0
102406428.0,332.0,321.0,0.0,0.0
102408084.0,336.0,323.0,0.0,0.0
102409740.0,341.0,324.0,0.0,0.0
102411396.0,339.0,326.0,0.0,0.0
102413052.0,342.0,327.0,0.0,0.0
102414708.0,336.0,326.0,0.0,0.0
102416364.0,333.0,324.0,0.0,0.0
102418020.0,324.0,321.0,0.0,0.0
102419680.0,329.0,320.0,0.0,0.0
102421336.0,330.0,321.0,0.0,0.0
102422992.0,329.0,319.0,0.0,0.0
102424648.0,329.0,320.0,0.0,0.0
102426304.0,332.0,320.0,0.0,0.0
102427960.0,337.0,322.0,0.0,0.0
102429616.0,340.0,325.0,0.0,0.0
102431276.0,341.0,326.0,0.0,0.0
102432932.0,342.0,328.0,0.0,0.0
102434588.0,335.0,327.0,0.0,0.0
102436244.0,334.0,327.0,0.0,0.0
102437908.0,325.0,325.0,0.0,0.0
102439556.0,329.0,322.0,0.0,0.0
102441216.0,330.0,316.0,0.0,0.0
102442872.0,329.0,316.0,0.0,0.0
102444528.0,330.0,320.0,0.0,0.0
102446184.0,330.0,321.0,0.0,0.0
102447840.0,336.0,322.0,0.0,0.0
102449496.0,338.0,325.0,0.0,0.0
102451152.0,342.0,326.0,0.0,0.0
102452808.0,339.0,326.0,0.0,0.0
102454468.0,338.0,326.0,0.0,0.0
102456124.0,335.0,325.0,0.0,0.0
102457780.0,329.0,322.0,0.0,0.0
102459436.0,325.0,321.0,0.0,0.0
102461092.0,326.0,321.0,0.0,0.0
102462748.0,329.0,320.0,0.0,0.0
102464408.0,332.0,319.0,0.0,0.0
102466060.0,333.0,319.0,0.0,0.0
102467720.0,335.0,321.0,0.0,0.0
102469376.0,337.0,324.0,0.0,0.0
102471032.0,340.0,326.0,0.0,0.0
102472688.0,337.0,326.0,0.0,0.0
102474344.0,338.0,326.0,0.0,0.0
102476000.0,335.0,322.0,0.0,0.0
102477660.0,333.0,319.0,0.0,0.0
102479316.0,331.0,327.0,0.0,0.0
102480972.0,326.0,322.0,0.0,0.0
102482628.0,326.0,320.0,0.0,0.0
102484284.0,328.0,320.0,0.0,0.0
102485940.0,332.0,319.0,0.0,0.0
102487600.0,335.0,321.0,0.0,0.0
102489252.0,337.0,324.0,0.0,0.0
102490908.0,340.0,326.0,0.0,0.0
102492568.0,340.0,324.0,0.0,0.0
102494232.0,339.0,325.0,0.0,0.0
102495880.0,334.0,325.0,0.0,0.0
102497536.0,331.0,323.0,0.0,0.0
102499192.0,329.0,324.0,0.0,0.0
102500852.0,326.0,322.0,0.0,0.0
102502508.0,327.0,320.0,0.0,0.0
102504164.0,330.0,319.0,0.0,0.0
102505820.0,334.0,320.0,0.0,0.0
102507476.0,336.0,321.0,0.0,0.0
102509132.0,337.0,323.0,0.0,0.0
102510788.0,340.0,324.0,0.0,0.0
102512444.0,337.0,326.0,0.0,0.0
102514104.0,338.0,325.0,0.0,0.0
102515760.0,336.0,326.0,0.0,0.0
102517416.0,334.0,327.0,0.0,0.0
102519072.0,329.0,323.0,0.0,0.0
102520728.0,331.0,320.0,0.0,0.0
102522384.0,330.0,319.0,0.0,0.0
102524044.0,327.0,318.0,0.0,0.0
102525700.0,323.0,320.0,0.0,0.0
102527356.0,334.0,321.0,0.0,0.0
102529012.0,338.0,321.0,0.0,0.0
102530668.0,341.0,324.0,0.0,0.0
102532324.0,339.0,324.0,0.0,0.0
102533980.0,338.0,326.0,0.0,0.0
102535640.0,336.0,326.0,0.0,0.0
102537296.0,334.0,325.0,0.0,0.0
102538952.0,331.0,323.0,0.0,0.0
102540608.0,327.0,320.0,0.0,0.0
102542264.0,325.0,319.0,0.0,0.0
102543920.0,327.0,319.0,0.0,0.0
102545576.0,330.0,320.0,0.0,0.0
102547236.0,333.0,321.0,0.0,0.0
102548888.0,337.0,325.0,0.0,0.0
102550556.0,340.0,327.0,0.0,0.0
102552204.0,336.0,324.0,0.0,0.0
102553860.0,340.0,324.0,0.0,0.0
102555516.0,337.0,327.0,0.0,0.0
102557172.0,335.0,324.0,0.0,0.0
102558828.0,333.0,322.0,0.0,0.0
102560488.0,328.0,321.0,0.0,0.0
102562144.0,328.0,319.0,0.0,0.0
102563800.0,326.0,320.0,0.0,0.0
102565456.0,329.0,320.0,0.0,0.0
102567112.0,336.0,324.0,0.0,0.0
102568768.0,336.0,322.0,0.0,0.0
102570424.0,341.0,324.0,0.0,0.0
102572080.0,340.0,324.0,0.0,0.0
102573740.0,339.0,325.0,0.0,0.0
102575396.0,337.0,326.0,0.0,0.0
102577052.0,334.0,326.0,0.0,0.0
102578708.0,330.0,323.0,0.0,0.0
102580364.0,328.0,322.0,0.0,0.0
102582020.0,327.0,321.0,0.0,0.0
102583680.0,327.0,320.0,0.0,0.0
102585336.0,328.0,321.0,0.0,0.0
102586992.0,332.0,321.0,0.0,0.0
102588648.0,338.0,318.0,0.0,0.0
102590304.0,340.0,319.0,0.0,0.0
102591960.0,339.0,325.0,0.0,0.0
102593616.0,338.0,327.0,0.0,0.0
102595272.0,338.0,327.0,0.0,0.0
102596928.0,335.0,326.0,0.0,0.0
102598588.0,330.0,323.0,0.0,0.0
102600244.0,329.0,322.0,0.0,0.0
102601900.0,327.0,320.0,0.0,0.0
102603556.0,327.0,320.0,0.0,0.0
102605212.0,330.0,319.0,0.0,0.0
102606876.0,334.0,318.0,0.0,0.0
102608528.0,336.0,322.0,0.0,0.0
102610184.0,332.0,323.0,0.0,0.0
102611840.0,341.0,325.0,0.0,0.0
102613496.0,337.0,326.0,0.0,0.0
102615152.0,336.0,326.0,0.0,0.0
102616808.0,337.0,328.0,0.0,0.0
102618468.0,332.0,326.0,0.0,0.0
102620124.0,330.0,322.0,0.0,0.0
102621780.0,328.0,320.0,0.0,0.0
102623436.0,329.0,319.0,0.0,0.0
102625092.0,331.0,319.0,0.0,0.0
102626748.0,332.0,320.0,0.0,0.0
102628404.0,333.0,320.0,0.0,0.0
102630060.0,337.0,323.0,0.0,0.0
102631720.0,340.0,325.0,0.0,0.0
102633376.0,342.0,328.0,0.0,0.0
102635032.0,338.0,326.0,0.0,0.0
102636688.0,336.0,325.0,0.0,0.0
102638344.0,332.0,324.0,0.0,0.0
102640000.0,328.0,321.0,0.0,0.0
102641660.0,327.0,320.0,0.0,0.0
102643312.0,328.0,320.0,0.0,0.0
102644972.0,328.0,319.0,0.0,0.0
102646628.0,331.0,324.0,0.0,0.0
102648284.0,334.0,317.0,0.0,0.0
102649940.0,338.0,326.0,0.0,0.0
102651596.0,340.0,329.0,0.0,0.0
102653252.0,338.0,327.0,0.0,0.0
102654908.0,340.0,320.0,0.0,0.0
102656568.0,333.0,312.0,0.0,0.0
102658224.0,332.0,324.0,0.0,0.0
102659880.0,330.0,323.0,0.0,0.0
102661536.0,328.0,321.0,0.0,0.0
102663196.0,326.0,321.0,0.0,0.0
102664848.0,326.0,320.0,0.0,0.0
102666508.0,330.0,319.0,0.0,0.0
102668164.0,335.0,320.0,0.0,0.0
102669820.0,338.0,323.0,0.0,0.0
102671476.0,339.0,324.0,0.0,0.0
102673132.0,340.0,325.0,0.0,0.0
102674788.0,338.0,326.0,0.0,0.0
102676444.0,336.0,326.0,0.0,0.0
102678104.0,332.0,325.0,0.0,0.0
102679760.0,331.0,322.0,0.0,0.0
102681416.0,329.0,321.0,0.0,0.0
102683072.0,330.0,322.0,0.0,0.0
102684728.0,326.0,321.0,0.0,0.0
102686384.0,331.0,320.0,0.0,0.0
102688040.0,334.0,321.0,0.0,0.0
102689700.0,338.0,322.0,0.0,0.0
102691352.0,338.0,323.0,0.0,0.0
102693012.0,341.0,325.0,0.0,0.0
102694668.0,339.0,325.0,0.0,0.0
102696324.0,338.0,325.0,0.0,0.0
102697980.0,332.0,326.0,0.0,0.0
102699636.0,330.0,323.0,0.0,0.0
102701292.0,330.0,323.0,0.0,0.0
102702948.0,325.0,321.0,0.0,0.0
102704608.0,328.0,318.0,0.0,0.0
102706264.0,330.0,319.0,0.0,0.0
102707920.0,333.0,320.0,0.0,0.0
102709576.0,336.0,322.0,0.0,0.0
102711232.0,338.0,324.0,0.0,0.0
102712892.0,340.0,326.0,0.0,0.0
102714548.0,339.0,326.0,0.0,0.0
102716204.0,337.0,325.0,0.0,0.0
102717860.0,334.0,322.0,0.0,0.0
102719516.0,329.0,323.0,0.0,0.0
102721172.0,328.0,322.0,0.0,0.0
102722832.0,327.0,320.0,0.0,0.0
102724488.0,327.0,320.0,0.0,0.0
102726140.0,328.0,320.0,0.0,0.0
102727800.0,334.0,320.0,0.0,0.0
102729456.0,339.0,321.0,0.0,0.0
102731112.0,338.0,323.0,0.0,0.0
102732768.0,340.0,326.0,0.0,0.0
102734424.0,338.0,325.0,0.0,0.0
102736080.0,337.0,325.0,0.0,0.0
102737736.0,333.0,326.0,0.0,0.0
102739396.0,330.0,325.0,0.0,0.0
102741052.0,327.0,321.0,0.0,0.0
102742708.0,327.0,319.0,0.0,0.0
102744364.0,330.0,318.0,0.0,0.0
102746020.0,328.0,319.0,0.0,0.0
102747676.0,330.0,320.0,0.0,0.0
102749332.0,339.0,325.0,0.0,0.0
102750992.0,339.0,325.0,0.0,0.0
102752648.0,341.0,324.0,0.0,0.0
102754312.0,340.0,323.0,0.0,0.0
102755960.0,339.0,325.0,0.0,0.0
102757616.0,335.0,327.0,0.0,0.0
102759272.0,332.0,324.0,0.0,0.0
102760932.0,328.0,322.0,0.0,0.0
102762588.0,326.0,320.0,0.0,0.0
102764244.0,329.0,321.0,0.0,0.0
102765900.0,329.0,320.0,0.0,0.0
102767556.0,333.0,321.0,0.0,0.0
102769212.0,332.0,321.0,0.0,0.0
102770868.0,339.0,322.0,0.0,0.0
102772524.0,341.0,325.0,0.0,0.0
102774184.0,339.0,326.0,0.0,0.0
102775840.0,334.0,326.0,0.0,0.0
102777496.0,335.0,325.0,0.0,0.0
102779152.0,333.0,324.0,0.0,0.0
102780808.0,330.0,323.0,0.0,0.0
102782468.0,328.0,321.0,0.0,0.0
102784124.0,328.0,319.0,0.0,0.0
102785780.0,327.0,319.0,0.0,0.0
102787436.0,331.0,318.0,0.0,0.0
102789092.0,334.0,319.0,0.0,0.0
102790748.0,338.0,322.0,0.0,0.0
102792404.0,340.0,323.0,0.0,0.0
102794060.0,339.0,330.0,0.0,0.0
102795720.0,339.0,327.0,0.0,0.0
102797372.0,335.0,324.0,0.0,0.0
102799032.0,333.0,324.0,0.0,0.0
102800688.0,329.0,324.0,0.0,0.0
102802344.0,328.0,323.0,0.0,0.0
102804000.0,327.0,320.0,0.0,0.0
102805656.0,330.0,319.0,0.0,0.0
102807316.0,332.0,320.0,0.0,0.0
102808972.0,334.0,320.0,0.0,0.0
102810636.0,336.0,322.0,0.0,0.0
102812284.0,338.0,324.0,0.0,0.0
102813940.0,337.0,325.0,0.0,0.0
102815596.0,339.0,328.0,0.0,0.0
102817252.0,337.0,329.0,0.0,0.0
102818908.0,332.0,327.0,0.0,0.0
102820564.0,330.0,322.0,0.0,0.0
102822224.0,330.0,318.0,0.0,0.0
102823880.0,328.0,319.0,0.0,0.0
102825536.0,327.0,320.0,0.0,0.0
102827192.0,330.0,320.0,0.0,0.0
102828848.0,336.0,320.0,0.0,0.0
102830508.0,339.0,322.0,0.0,0.0
102832160.0,337.0,325.0,0.0,0.0
102833820.0,341.0,327.0,0.0,0.0
102835476.0,338.0,326.0,0.0,0.0
102837132.0,338.0,326.0,0.0,0.0
102838788.0,332.0,324.0,0.0,0.0
102840444.0,330.0,323.0,0.0,0.0
102842100.0,329.0,322.0,0.0,0.0
102843760.0,327.0,320.0,0.0,0.0
102845416.0,326.0,318.0,0.0,0.0
102847072.0,331.0,318.0,0.0,0.0
102848728.0,333.0,320.0,0.0,0.0
102850384.0,338.0,322.0,0.0,0.0
102852040.0,337.0,323.0,0.0,0.0
102853700.0,342.0,325.0,0.0,0.0
102855356.0,340.0,329.0,0.0,0.0
102857008.0,338.0,327.0,0.0,0.0
102858668.0,334.0,325.0,0.0,0.0
102860324.0,330.0,319.0,0.0,0.0
102861980.0,325.0,321.0,0.0,0.0
102863636.0,327.0,320.0,0.0,0.0
102865296.0,328.0,322.0,0.0,0.0
102866960.0,331.0,323.0,0.0,0.0
102868608.0,332.0,320.0,0.0,0.0
102870264.0,336.0,321.0,0.0,0.0
102871920.0,338.0,324.0,0.0,0.0
102873576.0,341.0,325.0,0.0,0.0
102875232.0,338.0,325.0,0.0,0.0
102876888.0,338.0,327.0,0.0,0.0
102878544.0,335.0,326.0,0.0,0.0
102880204.0,331.0,324.0,0.0,0.0
102881860.0,330.0,322.0,0.0,0.0
102883516.0,331.0,322.0,0.0,0.0
102885172.0,327.0,319.0,0.0,0.0
102886828.0,330.0,318.0,0.0,0.0
102888484.0,332.0,323.0,0.0,0.0
102890140.0,334.0,323.0,0.0,0.0
102891800.0,336.0,328.0,0.0,0.0
102893456.0,340.0,324.0,0.0,0.0
102895112.0,340.0,312.0,0.0,0.0
102896768.0,338.0,325.0,0.0,0.0
102898424.0,336.0,325.0,0.0,0.0
102900080.0,333.0,325.0,0.0,0.0
102901736.0,329.0,324.0,0.0,0.0
102903392.0,325.0,320.0,0.0,0.0
102905052.0,327.0,321.0,0.0,0.0
102906708.0,329.0,320.0,0.0,0.0
102908364.0,332.0,318.0,0.0,0.0
102910020.0,332.0,320.0,0.0,0.0
102911676.0,336.0,324.0,0.0,0.0
102913332.0,340.0,325.0,0.0,0.0
102914992.0,339.0,326.0,0.0,0.0
102916648.0,339.0,325.0,0.0,0.0
102918304.0,337.0,326.0,0.0,0.0
102919960.0,336.0,325.0,0.0,0.0
102921616.0,329.0,325.0,0.0,0.0
102923280.0,325.0,325.0,0.0,0.0
102924928.0,327.0,319.0,0.0,0.0
102926588.0,328.0,317.0,0.0,0.0
102928244.0,331.0,319.0,0.0,0.0
102929900.0,333.0,321.0,0.0,0.0
102931556.0,333.0,322.0,0.0,0.0
102933212.0,342.0,325.0,0.0,0.0
102934868.0,337.0,326.0,0.0,0.0
102936524.0,341.0,327.0,0.0,0.0
102938184.0,338.0,325.0,0.0,0.0
102939840.0,335.0,322.0,0.0,0.0
102941496.0,331.0,323.0,0.0,0.0
102943152.0,328.0,321.0,0.0,0.0
102944808.0,328.0,320.0,0.0,0.0
102946464.0,328.0,319.0,0.0,0.0
102948124.0,330.0,320.0,0.0,0.0
102949780.0,335.0,323.0,0.0,0.0
102951436.0,334.0,323.0,0.0,0.0
102953092.0,339.0,323.0,0.0,0.0
102954748.0,341.0,325.0,0.0,0.0
102956404.0,338.0,325.0,1.0,0.0
102958060.0,337.0,326.0,1.0,0.0
102959720.0,334.0,325.0,1.0,0.0
102961376.0,330.0,325.0,1.0,0.0
102963032.0,329.0,322.0,1.0,0.0
102964688.0,327.0,317.0,1.0,0.0
102966344.0,328.0,316.0,1.0,0.0
102968000.0,330.0,319.0,1.0,0.0
102969656.0,332.0,322.0,1.0,0.0
102971312.0,335.0,322.0,1.0,0.0
102972968.0,339.0,323.0,1.0,0.0
102974628.0,342.0,327.0,1.0,0.0
102976284.0,339.0,326.0,1.0,0.0
102977940.0,337.0,326.0,1.0,0.0
102979604.0,337.0,326.0,1.0,0.0
102981252.0,330.0,324.0,1.0,0.0
102982908.0,325.0,319.0,1.0,0.0
102984568.0,321.0,318.0,1.0,0.0
102986224.0,326.0,319.0,1.0,0.0
102987880.0,330.0,320.0,1.0,0.0
102989536.0,334.0,320.0,1.0,0.0
102991192.0,336.0,321.0,1.0,0.0
102992848.0,339.0,322.0,1.0,0.0
102994508.0,342.0,325.0,1.0,0.0
102996160.0,341.0,326.0,1.0,0.0
102997820.0,339.0,326.0,1.0,0.0
102999476.0,335.0,328.0,1.0,0.0
103001132.0,329.0,326.0,1.0,0.0
103002788.0,328.0,322.0,1.0,0.0
103004444.0,334.0,320.0,1.0,0.0
103006100.0,327.0,319.0,1.0,0.0
103007760.0,331.0,319.0,1.0,0.0
103009416.0,328.0,321.0,1.0,0.0
103011072.0,332.0,320.0,1.0,0.0
103012728.0,335.0,322.0,1.0,0.0
103014384.0,339.0,325.0,1.0,0.0
103016040.0,341.0,327.0,1.0,0.0
103017696.0,338.0,327.0,1.0,0.0
103019356.0,337.0,324.0,1.0,0.0
103021012.0,334.0,324.0,1.0,0.0
103022668.0,331.0,323.0,0.0,0.0
103024324.0,327.0,320.0,0.0,0.0
103025980.0,330.0,319.0,0.0,0.0
103027636.0,328.0,319.0,0.0,0.0
103029292.0,331.0,320.0,0.0,0.0
103030948.0,333.0,321.0,0.0,0.0
103032608.0,337.0,323.0,0.0,0.0
103034264.0,340.0,325.0,0.0,0.0
103035928.0,339.0,326.0,0.0,0.0
103037576.0,338.0,326.0,0.0,0.0
103039232.0,334.0,326.0,0.0,0.0
103040888.0,333.0,326.0,0.0,0.0
103042544.0,331.0,320.0,0.0,0.0
103044204.0,326.0,321.0,0.0,0.0
103045860.0,329.0,320.0,0.0,0.0
103047516.0,330.0,318.0,0.0,0.0
103049172.0,331.0,319.0,0.0,0.0
103050828.0,330.0,320.0,0.0,0.0
103052484.0,336.0,322.0,0.0,0.0
103054140.0,339.0,324.0,0.0,0.0
103055800.0,339.0,326.0,0.0,0.0
103057456.0,339.0,326.0,0.0,0.0
103059112.0,335.0,325.0,0.0,0.0
103060768.0,331.0,323.0,0.0,0.0
103062424.0,332.0,322.0,0.0,0.0
103064080.0,330.0,322.0,0.0,0.0
103065736.0,329.0,328.0,0.0,0.0
103067396.0,325.0,322.0,0.0,0.0
103069052.0,328.0,318.0,0.0,0.0
103070708.0,335.0,319.0,0.0,0.0
103072364.0,339.0,321.0,0.0,0.0
103074020.0,340.0,324.0,0.0,0.0
103075676.0,341.0,325.0,0.0,0.0
103077332.0,339.0,325.0,0.0,0.0
103078992.0,337.0,326.0,0.0,0.0
103080648.0,334.0,325.0,0.0,0.0
103082304.0,329.0,323.0,0.0,0.0
103083960.0,330.0,322.0,0.0,0.0
103085616.0,326.0,320.0,0.0,0.0
103087272.0,329.0,320.0,0.0,0.0
103088928.0,330.0,319.0,0.0,0.0
103090588.0,333.0,319.0,0.0,0.0
103092252.0,334.0,323.0,0.0,0.0
103093900.0,338.0,323.0,0.0,0.0
103095556.0,340.0,324.0,0.0,0.0
103097212.0,339.0,324.0,0.0,0.0
103098868.0,335.0,328.0,0.0,0.0
103100524.0,337.0,326.0,0.0,0.0
103102180.0,332.0,323.0,0.0,0.0
103103840.0,326.0,322.0,0.0,0.0
103105496.0,327.0,319.0,0.0,0.0
103107152.0,327.0,321.0,0.0,0.0
103108808.0,329.0,320.0,0.0,0.0
103110464.0,331.0,319.0,0.0,0.0
103112120.0,335.0,318.0,0.0,0.0
103113776.0,338.0,324.0,0.0,0.0
103115436.0,341.0,328.0,0.0,0.0
103117092.0,340.0,329.0,0.0,0.0
103118748.0,338.0,327.0,0.0,0.0
103120404.0,338.0,325.0,0.0,0.0
103122060.0,333.0,324.0,0.0,0.0
103123716.0,330.0,321.0,0.0,0.0
103125376.0,326.0,318.0,0.0,0.0
103127032.0,326.0,319.0,0.0,0.0
103128688.0,327.0,319.0,0.0,0.0
103130344.0,333.0,320.0,0.0,0.0
103132000.0,335.0,321.0,0.0,0.0
103133656.0,339.0,325.0,0.0,0.0
103135312.0,336.0,326.0,0.0,0.0
103136972.0,339.0,326.0,0.0,0.0
103138624.0,341.0,326.0,0.0,0.0
103140284.0,340.0,326.0,0.0,0.0
103141940.0,332.0,324.0,0.0,0.0
103143596.0,321.0,321.0,0.0,0.0
103145252.0,328.0,320.0,0.0,0.0
103146908.0,329.0,319.0,0.0,0.0
103148572.0,329.0,319.0,0.0,0.0
103150224.0,331.0,320.0,0.0,0.0
103151880.0,332.0,320.0,0.0,0.0
103153536.0,336.0,323.0,0.0,0.0
103155192.0,342.0,325.0,0.0,0.0
103156848.0,339.0,326.0,0.0,0.0
103158504.0,338.0,326.0,0.0,0.0
103160160.0,335.0,326.0,0.0,0.0
103161816.0,334.0,324.0,0.0,0.0
103163476.0,330.0,323.0,0.0,0.0
103165132.0,327.0,320.0,0.0,0.0
103166788.0,327.0,320.0,0.0,0.0
103168444.0,328.0,320.0,0.0,0.0
103170100.0,331.0,319.0,0.0,0.0
103171756.0,334.0,320.0,0.0,0.0
103173416.0,336.0,322.0,0.0,0.0
103175072.0,338.0,325.0,0.0,0.0
103176728.0,338.0,325.0,0.0,0.0
103178384.0,338.0,327.0,0.0,0.0
103180040.0,337.0,324.0,0.0,0.0
103181696.0,334.0,326.0,0.0,0.0
103183352.0,330.0,326.0,0.0,0.0
103185012.0,326.0,322.0,0.0,0.0
103186668.0,328.0,319.0,0.0,0.0
103188324.0,331.0,318.0,0.0,0.0
103189980.0,331.0,319.0,0.0,0.0
103191636.0,333.0,321.0,0.0,0.0
103193292.0,337.0,322.0,0.0,0.0
103194948.0,339.0,323.0,0.0,0.0
103196608.0,340.0,324.0,0.0,0.0
103198264.0,340.0,327.0,0.0,0.0
103199920.0,341.0,329.0,0.0,0.0
103201576.0,333.0,325.0,0.0,0.0
103203232.0,329.0,322.0,0.0,0.0
103204892.0,326.0,321.0,0.0,0.0
103206548.0,326.0,319.0,0.0,0.0
103208200.0,330.0,320.0,0.0,0.0
103209860.0,332.0,319.0,0.0,0.0
103211516.0,334.0,320.0,0.0,0.0
103213172.0,335.0,322.0,0.0,0.0
103214828.0,337.0,325.0,0.0,0.0
103216484.0,338.0,325.0,0.0,0.0
103218144.0,334.0,326.0,0.0,0.0
103219800.0,335.0,325.0,0.0,0.0
103221456.0,337.0,326.0,0.0,0.0
103223112.0,335.0,324.0,0.0,0.0
103224768.0,331.0,323.0,0.0,0.0
103226424.0,327.0,317.0,0.0,0.0
103228080.0,328.0,318.0,0.0,0.0
103229736.0,330.0,322.0,0.0,0.0
103231392.0,332.0,322.0,0.0,0.0
103233052.0,335.0,323.0,0.0,0.0
103234708.0,337.0,323.0,0.0,0.0
103236364.0,340.0,323.0,0.0,0.0
103238020.0,342.0,326.0,0.0,0.0
103239676.0,337.0,328.0,0.0,0.0
103241336.0,331.0,327.0,0.0,0.0
103242988.0,331.0,325.0,0.0,0.0
103244648.0,331.0,322.0,0.0,0.0
103246304.0,328.0,320.0,0.0,0.0
103247960.0,329.0,320.0,0.0,0.0
103249616.0,334.0,322.0,0.0,0.0
103251272.0,330.0,321.0,0.0,0.0
103252928.0,336.0,322.0,0.0,0.0
103254584.0,335.0,322.0,0.0,0.0
103256240.0,339.0,325.0,0.0,0.0
103257900.0,339.0,326.0,0.0,0.0
103259556.0,338.0,325.0,0.0,0.0
103261212.0,336.0,325.0,0.0,0.0
103262868.0,331.0,324.0,0.0,0.0
103264524.0,330.0,321.0,0.0,0.0
103266180.0,329.0,322.0,0.0,0.0
103267840.0,328.0,321.0,0.0,0.0
103269496.0,328.0,320.0,0.0,0.0
103271152.0,331.0,320.0,0.0,0.0
103272808.0,334.0,321.0,0.0,0.0
103274464.0,339.0,322.0,0.0,0.0
103276120.0,339.0,323.0,0.0,0.0
103277776.0,338.0,325.0,0.0,0.0
103279432.0,338.0,327.0,0.0,0.0
103281088.0,335.0,324.0,0.0,0.0
103282748.0,334.0,324.0,0.0,0.0
103284404.0,327.0,322.0,0.0,0.0
103286060.0,326.0,320.0,0.0,0.0
103287716.0,329.0,320.0,0.0,0.0
103289376.0,331.0,319.0,0.0,0.0
103291032.0,331.0,321.0,0.0,0.0
103292688.0,333.0,319.0,0.0,0.0
103294344.0,336.0,323.0,0.0,0.0
103296008.0,340.0,325.0,0.0,0.0
103297656.0,340.0,325.0,0.0,0.0
103299312.0,340.0,325.0,0.0,0.0
103300968.0,334.0,325.0,0.0,0.0
103302628.0,330.0,325.0,0.0,0.0
103304280.0,326.0,323.0,0.0,0.0
103305940.0,327.0,321.0,0.0,0.0
103307596.0,328.0,320.0,0.0,0.0
103309252.0,329.0,317.0,0.0,0.0
103310908.0,332.0,318.0,0.0,0.0
103312564.0,333.0,321.0,0.0,0.0
103314224.0,338.0,323.0,0.0,0.0
103315880.0,343.0,326.0,0.0,0.0
103317536.0,338.0,327.0,0.0,0.0
103319192.0,337.0,327.0,0.0,0.0
103320848.0,340.0,328.0,0.0,0.0
103322504.0,333.0,323.0,0.0,0.0
103324164.0,332.0,321.0,0.0,0.0
103325816.0,327.0,321.0,0.0,0.0
103327476.0,327.0,317.0,0.0,0.0
103329132.0,323.0,320.0,0.0,0.0
103330788.0,330.0,320.0,0.0,0.0
103332444.0,333.0,321.0,0.0,0.0
103334100.0,337.0,322.0,0.0,0.0
103335756.0,338.0,323.0,0.0,0.0
103337416.0,341.0,324.0,0.0,0.0
103339072.0,339.0,326.0,0.0,0.0
103340728.0,337.0,327.0,0.0,0.0
103342384.0,334.0,329.0,0.0,0.0
103344040.0,331.0,323.0,0.0,0.0
103345696.0,330.0,321.0,0.0,0.0
103347352.0,327.0,320.0,0.0,0.0
103349012.0,328.0,318.0,0.0,0.0
103350668.0,329.0,317.0,0.0,0.0
103352332.0,332.0,320.0,0.0,0.0
103353980.0,335.0,322.0,0.0,0.0
103355636.0,339.0,324.0,0.0,0.0
103357292.0,342.0,323.0,0.0,0.0
103358948.0,336.0,325.0,0.0,0.0
103360608.0,334.0,326.0,0.0,0.0
103362264.0,334.0,325.0,0.0,0.0
103363920.0,332.0,324.0,0.0,0.0
103365576.0,330.0,322.0,0.0,0.0
103367232.0,328.0,320.0,0.0,0.0
103368888.0,328.0,320.0,0.0,1.0
103370544.0,329.0,319.0,0.0,1.0
103372200.0,333.0,320.0,0.0,1.0
103373860.0,335.0,320.0,0.0,1.0
103375516.0,337.0,323.0,0.0,1.0
103377172.0,339.0,325.0,0.0,1.0
103378828.0,338.0,326.0,0.0,1.0
103380484.0,336.0,326.0,0.0,1.0
103382140.0,335.0,326.0,0.0,1.0
103383796.0,336.0,327.0,0.0,1.0
103385456.0,332.0,326.0,0.0,1.0
103387112.0,327.0,321.0,0.0,1.0
103388768.0,328.0,319.0,0.0,1.0
103390424.0,326.0,318.0,0.0,1.0
103392080.0,329.0,319.0,0.0,1.0
103393736.0,332.0,321.0,0.0,1.0
103395392.0,338.0,322.0,0.0,1.0
103397052.0,344.0,324.0,0.0,1.0
103398708.0,344.0,326.0,0.0,1.0
103400364.0,340.0,327.0,0.0,1.0
103402020.0,327.0,326.0,0.0,1.0
103403676.0,329.0,325.0,0.0,1.0
103405332.0,333.0,322.0,0.0,1.0
103406992.0,330.0,320.0,0.0,1.0
103408656.0,329.0,320.0,0.0,1.0
103410304.0,329.0,319.0,0.0,1.0
103411960.0,331.0,320.0,0.0,1.0
103413616.0,333.0,321.0,0.0,1.0
103415272.0,339.0,322.0,0.0,1.0
103416928.0,340.0,324.0,0.0,1.0
103418584.0,337.0,325.0,0.0,1.0
103420244.0,338.0,326.0,0.0,1.0
103421900.0,336.0,326.0,0.0,1.0
103423556.0,334.0,325.0,0.0,1.0
103425212.0,329.0,322.0,0.0,1.0
103426868.0,327.0,321.0,0.0,1.0
103428524.0,328.0,320.0,0.0,1.0
103430180.0,326.0,318.0,0.0,1.0
103431840.0,330.0,320.0,0.0,1.0
103433496.0,335.0,322.0,0.0,1.0
103435152.0,337.0,323.0,0.0,1.0
103436808.0,340.0,325.0,0.0,1.0
103438464.0,341.0,326.0,0.0,1.0
103440120.0,340.0,325.0,0.0,1.0
103441780.0,337.0,325.0,0.0,1.0
103443436.0,334.0,326.0,0.0,1.0
103445092.0,331.0,324.0,0.0,1.0
103446748.0,332.0,322.0,0.0,1.0
103448404.0,327.0,320.0,0.0,1.0
103450060.0,324.0,319.0,0.0,1.0
103451716.0,327.0,319.0,0.0,1.0
103453372.0,324.0,320.0,0.0,1.0
103455028.0,337.0,323.0,0.0,1.0
103456684.0,340.0,326.0,0.0,1.0
103458344.0,341.0,326.0,0.0,1.0
103460000.0,345.0,327.0,0.0,1.0
103461656.0,333.0,322.0,0.0,1.0
103463312.0,335.0,324.0,0.0,1.0
103464976.0,331.0,320.0,0.0,1.0
103466624.0,326.0,324.0,0.0,1.0
103468284.0,328.0,322.0,0.0,1.0
103469940.0,330.0,320.0,0.0,1.0
103471596.0,332.0,320.0,0.0,1.0
103473252.0,335.0,320.0,0.0,1.0
103474908.0,339.0,320.0,0.0,1.0
103476564.0,334.0,324.0,0.0,1.0
103478224.0,336.0,326.0,0.0,1.0
103479880.0,337.0,326.0,0.0,0.0
103481536.0,337.0,326.0,0.0,0.0
103483192.0,336.0,325.0,0.0,0.0
103484848.0,332.0,323.0,0.0,0.0
103486504.0,330.0,321.0,0.0,0.0
103488160.0,327.0,321.0,0.0,0.0
103489816.0,328.0,319.0,0.0,0.0
103491476.0,329.0,318.0,0.0,0.0
103493132.0,331.0,317.0,0.0,0.0
103494788.0,335.0,320.0,0.0,0.0
103496444.0,337.0,321.0,0.0,0.0
103498100.0,340.0,331.0,0.0,0.0
103499756.0,340.0,330.0,0.0,0.0
103501412.0,337.0,326.0,0.0,0.0
103503072.0,336.0,325.0,0.0,0.0
103504728.0,332.0,324.0,0.0,0.0
103506384.0,329.0,322.0,0.0,0.0
103508040.0,327.0,320.0,0.0,0.0
103509696.0,328.0,320.0,0.0,0.0
103511352.0,328.0,320.0,0.0,0.0
103513012.0,332.0,320.0,0.0,0.0
103514668.0,333.0,321.0,0.0,0.0
103516324.0,339.0,324.0,0.0,0.0
103517980.0,338.0,325.0,0.0,0.0
103519636.0,340.0,325.0,0.0,0.0
103521300.0,341.0,324.0,0.0,0.0
103522948.0,334.0,325.0,0.0,0.0
103524608.0,331.0,325.0,0.0,0.0
103526264.0,329.0,322.0,0.0,0.0
103527920.0,326.0,320.0,0.0,0.0
103529576.0,326.0,319.0,0.0,0.0
103531232.0,327.0,319.0,0.0,0.0
103532888.0,332.0,320.0,0.0,0.0
103534544.0,334.0,321.0,0.0,0.0
103536204.0,337.0,323.0,0.0,0.0
103537860.0,339.0,324.0,0.0,0.0
103539516.0,339.0,326.0,0.0,0.0
103541172.0,339.0,326.0,0.0,0.0
103542828.0,336.0,326.0,0.0,0.0
103544484.0,334.0,325.0,0.0,0.0
103546140.0,329.0,323.0,0.0,0.0
103547796.0,326.0,321.0,0.0,0.0
103549452.0,329.0,320.0,0.0,0.0
103551112.0,332.0,319.0,0.0,0.0
103552768.0,330.0,320.0,0.0,0.0
103554424.0,332.0,319.0,0.0,0.0
103556080.0,335.0,320.0,0.0,0.0
103557736.0,340.0,324.0,0.0,0.0
103559392.0,338.0,326.0,0.0,0.0
103561052.0,336.0,326.0,0.0,0.0
103562704.0,334.0,326.0,0.0,0.0
103564364.0,334.0,325.0,0.0,0.0
103566020.0,334.0,326.0,0.0,0.0
103567676.0,331.0,323.0,0.0,0.0
103569332.0,328.0,321.0,0.0,0.0
103570988.0,330.0,320.0,0.0,0.0
103572644.0,326.0,319.0,0.0,0.0
103574300.0,335.0,320.0,0.0,0.0
103575960.0,334.0,321.0,0.0,0.0
103577624.0,339.0,324.0,0.0,0.0
103579272.0,340.0,328.0,0.0,0.0
103580928.0,340.0,328.0,0.0,0.0
103582584.0,338.0,327.0,0.0,0.0
103584240.0,332.0,323.0,0.0,0.0
103585896.0,331.0,323.0,0.0,0.0
103587556.0,333.0,320.0,0.0,0.0
103589212.0,329.0,321.0,0.0,0.0
103590868.0,325.0,320.0,0.0,0.0
103592524.0,330.0,317.0,0.0,0.0
103594184.0,332.0,318.0,0.0,0.0
103595836.0,337.0,325.0,0.0,0.0
103597492.0,339.0,327.0,0.0,0.0
103599152.0,339.0,328.0,0.0,0.0
103600808.0,338.0,329.0,0.0,0.0
103602464.0,337.0,318.0,0.0,0.0
103604120.0,334.0,318.0,0.0,0.0
103605776.0,332.0,325.0,0.0,0.0
103607432.0,328.0,322.0,0.0,0.0
103609092.0,327.0,321.0,0.0,0.0
103610748.0,327.0,320.0,0.0,0.0
103612404.0,327.0,320.0,0.0,0.0
103614060.0,333.0,319.0,0.0,0.0
103615716.0,334.0,322.0,0.0,0.0
103617372.0,338.0,324.0,0.0,0.0
103619028.0,338.0,325.0,0.0,0.0
103620688.0,340.0,325.0,0.0,0.0
103622344.0,339.0,325.0,0.0,0.0
103624000.0,334.0,324.0,0.0,0.0
103625656.0,331.0,322.0,0.0,0.0
103627312.0,329.0,322.0,0.0,0.0
103628968.0,329.0,326.0,0.0,0.0
103630624.0,327.0,320.0,0.0,0.0
103632280.0,329.0,322.0,0.0,0.0
103633948.0,331.0,320.0,0.0,0.0
103635596.0,336.0,320.0,0.0,0.0
103637252.0,339.0,323.0,0.0,0.0
103638908.0,337.0,323.0,0.0,0.0
103640564.0,340.0,325.0,0.0,0.0
103642220.0,339.0,326.0,0.0,0.0
103643876.0,335.0,327.0,0.0,0.0
103645536.0,335.0,325.0,0.0,0.0
103647192.0,332.0,322.0,0.0,0.0
103648848.0,329.0,320.0,0.0,0.0
103650504.0,323.0,321.0,0.0,0.0
103652160.0,327.0,319.0,0.0,0.0
103653816.0,332.0,320.0,0.0,0.0
103655476.0,333.0,321.0,0.0,0.0
103657128.0,336.0,323.0,0.0,0.0
103658788.0,341.0,324.0,0.0,0.0
103660444.0,339.0,325.0,0.0,0.0
103662100.0,339.0,325.0,0.0,0.0
103663756.0,337.0,325.0,0.0,0.0
103665412.0,332.0,325.0,0.0,0.0
103667072.0,328.0,322.0,0.0,0.0
103668728.0,326.0,321.0,0.0,0.0
103670384.0,327.0,321.0,0.0,0.0
103672040.0,327.0,319.0,0.0,0.0
103673696.0,331.0,320.0,0.0,0.0
103675352.0,335.0,321.0,0.0,0.0
103677008.0,338.0,324.0,0.0,0.0
103678664.0,339.0,324.0,0.0,0.0
103680320.0,341.0,322.0,0.0,0.0
103681980.0,337.0,325.0,0.0,0.0
103683636.0,337.0,327.0,0.0,0.0
103685292.0,337.0,327.0,0.0,0.0
103686948.0,330.0,327.0,0.0,0.0
103688604.0,325.0,323.0,0.0,0.0
103690268.0,321.0,320.0,0.0,0.0
103691920.0,330.0,318.0,0.0,0.0
103693576.0,331.0,319.0,0.0,0.0
103695232.0,334.0,320.0,0.0,0.0
103696888.0,338.0,322.0,0.0,0.0
103698544.0,342.0,325.0,0.0,0.0
103700200.0,342.0,327.0,0.0,0.0
103701860.0,338.0,326.0,0.0,0.0
103703516.0,339.0,326.0,0.0,0.0
103705172.0,335.0,325.0,0.0,0.0
103706828.0,329.0,324.0,0.0,0.0
103708484.0,328.0,322.0,0.0,0.0
103710140.0,329.0,320.0,0.0,0.0
103711796.0,327.0,319.0,0.0,0.0
103713452.0,329.0,320.0,0.0,0.0
103715112.0,332.0,319.0,0.0,0.0
103716768.0,337.0,320.0,0.0,0.0
103718424.0,338.0,322.0,0.0,0.0
103720080.0,341.0,327.0,0.0,0.0
103721736.0,339.0,327.0,0.0,0.0
103723392.0,337.0,326.0,0.0,0.0
103725052.0,334.0,323.0,0.0,0.0
103726704.0,327.0,323.0,0.0,0.0
103728364.0,329.0,322.0,0.0,0.0
103730020.0,328.0,319.0,0.0,0.0
103731676.0,329.0,318.0,0.0,0.0
103733332.0,329.0,320.0,0.0,0.0
103734988.0,330.0,321.0,0.0,0.0
103736644.0,336.0,321.0,0.0,0.0
103738300.0,338.0,323.0,0.0,0.0
103739960.0,340.0,325.0,0.0,0.0
103741616.0,337.0,326.0,0.0,0.0
103743272.0,338.0,327.0,0.0,0.0
103744928.0,336.0,326.0,0.0,0.0
103746588.0,332.0,324.0,0.0,0.0
103748240.0,329.0,322.0,0.0,0.0
103749900.0,329.0,321.0,0.0,0.0
103751556.0,327.0,320.0,0.0,0.0
103753212.0,330.0,319.0,0.0,0.0
103754868.0,331.0,320.0,0.0,0.0
103756524.0,333.0,320.0,0.0,0.0
103758180.0,337.0,322.0,0.0,0.0
103759836.0,340.0,325.0,0.0,0.0
103761496.0,338.0,327.0,0.0,0.0
103763148.0,339.0,328.0,0.0,0.0
103764808.0,335.0,325.0,0.0,0.0
103766464.0,336.0,326.0,0.0,0.0
103768120.0,328.0,325.0,0.0,0.0
103769776.0,327.0,323.0,0.0,0.0
103771432.0,331.0,320.0,0.0,0.0
103773092.0,331.0,318.0,0.0,0.0
103774748.0,333.0,318.0,0.0,0.0
103776404.0,332.0,320.0,0.0,0.0
103778060.0,336.0,322.0,0.0,0.0
103779716.0,340.0,325.0,0.0,0.0
103781372.0,338.0,326.0,0.0,0.0
103783028.0,338.0,328.0,0.0,0.0
103784684.0,338.0,328.0,0.0,0.0
103786340.0,336.0,323.0,0.0,0.0
103788000.0,328.0,318.0,0.0,0.0
103789656.0,325.0,319.0,0.0,0.0
103791312.0,326.0,321.0,0.0,0.0
103792968.0,326.0,319.0,0.0,0.0
103794624.0,330.0,319.0,0.0,0.0
103796284.0,334.0,320.0,0.0,0.0
103797940.0,337.0,324.0,0.0,0.0
103799596.0,338.0,325.0,0.0,0.0
103801252.0,341.0,324.0,1.0,0.0
103802908.0,341.0,325.0,1.0,0.0
103804564.0,337.0,325.0,1.0,0.0
103806220.0,334.0,326.0,1.0,0.0
103807876.0,330.0,324.0,1.0,0.0
103809536.0,326.0,321.0,1.0,0.0
103811192.0,326.0,320.0,1.0,0.0
103812848.0,326.0,319.0,1.0,0.0
103814504.0,331.0,318.0,1.0,0.0
103816160.0,336.0,323.0,1.0,0.0
103817816.0,334.0,322.0,1.0,0.0
103819472.0,339.0,323.0,1.0,0.0
103821132.0,340.0,323.0,1.0,0.0
103822788.0,341.0,328.0,1.0,0.0
103824444.0,338.0,326.0,1.0,0.0
103826100.0,335.0,325.0,1.0,0.0
103827756.0,330.0,323.0,1.0,0.0
103829412.0,326.0,322.0,1.0,0.0
103831068.0,326.0,320.0,1.0,0.0
103832728.0,331.0,322.0,1.0,0.0
103834384.0,328.0,320.0,1.0,0.0
103836040.0,332.0,321.0,1.0,0.0
103837704.0,334.0,322.0,1.0,0.0
103839352.0,339.0,322.0,1.0,0.0
103841008.0,341.0,324.0,1.0,0.0
103842664.0,340.0,326.0,1.0,0.0
103844324.0,337.0,327.0,1.0,0.0
103845980.0,333.0,326.0,1.0,0.0
103847636.0,330.0,324.0,1.0,0.0
103849292.0,329.0,322.0,1.0,0.0
103850948.0,327.0,320.0,1.0,0.0
103852604.0,328.0,318.0,1.0,0.0
103854260.0,331.0,319.0,1.0,0.0
103855916.0,331.0,320.0,1.0,0.0
103857572.0,334.0,321.0,1.0,0.0
103859232.0,336.0,323.0,1.0,0.0
103860888.0,341.0,324.0,1.0,0.0
103862544.0,340.0,326.0,1.0,0.0
103864200.0,339.0,326.0,1.0,0.0
103865856.0,338.0,326.0,1.0,0.0
103867516.0,329.0,324.0,1.0,0.0
103869172.0,326.0,322.0,1.0,0.0
103870828.0,324.0,320.0,1.0,0.0
103872484.0,329.0,319.0,1.0,0.0
103874140.0,330.0,319.0,1.0,0.0
103875796.0,332.0,319.0,1.0,0.0
103877452.0,334.0,321.0,1.0,0.0
103879108.0,339.0,322.0,1.0,0.0
103880768.0,340.0,323.0,1.0,0.0
103882424.0,344.0,327.0,1.0,0.0
103884080.0,339.0,328.0,1.0,0.0
103885736.0,334.0,327.0,1.0,0.0
103887392.0,334.0,328.0,1.0,0.0
103889048.0,330.0,321.0,1.0,0.0
103890704.0,326.0,321.0,1.0,0.0
103892360.0,327.0,320.0,1.0,0.0
103894028.0,329.0,318.0,1.0,0.0
103895676.0,330.0,316.0,1.0,0.0
103897332.0,334.0,321.0,1.0,0.0
103898988.0,338.0,325.0,1.0,0.0
103900644.0,339.0,325.0,1.0,0.0
103902300.0,342.0,325.0,1.0,0.0
103903960.0,343.0,326.0,1.0,0.0
103905616.0,335.0,326.0,1.0,0.0
103907272.0,330.0,325.0,1.0,0.0
103908928.0,322.0,322.0,1.0,0.0
103910584.0,327.0,320.0,1.0,0.0
103912240.0,330.0,320.0,1.0,0.0
103913896.0,329.0,318.0,1.0,0.0
103915556.0,331.0,320.0,1.0,0.0
103917212.0,333.0,322.0,1.0,0.0
103918868.0,341.0,323.0,1.0,0.0
103920524.0,347.0,322.0,1.0,0.0
103922180.0,343.0,324.0,1.0,0.0
103923836.0,333.0,325.0,1.0,0.0
103925496.0,331.0,326.0,1.0,0.0
103927148.0,326.0,325.0,1.0,0.0
103928808.0,323.0,323.0,1.0,0.0
103930464.0,329.0,320.0,1.0,0.0
103932120.0,333.0,320.0,1.0,0.0
103933776.0,330.0,320.0,1.0,0.0
103935432.0,332.0,319.0,1.0,0.0
103937088.0,333.0,321.0,1.0,0.0
103938744.0,335.0,323.0,1.0,0.0
103940404.0,338.0,326.0,1.0,0.0
103942060.0,341.0,324.0,1.0,0.0
103943716.0,341.0,321.0,1.0,0.0
103945372.0,338.0,329.0,1.0,0.0
103947028.0,332.0,326.0,1.0,0.0
103948684.0,332.0,325.0,1.0,0.0
103950352.0,329.0,321.0,1.0,0.0
103952000.0,327.0,319.0,1.0,0.0
103953656.0,329.0,318.0,1.0,0.0
103955312.0,332.0,323.0,1.0,0.0
103956968.0,334.0,325.0,1.0,0.0
103958624.0,336.0,326.0,1.0,0.0
103960280.0,338.0,326.0,1.0,0.0
103961940.0,340.0,306.0,0.0,0.0
103963596.0,337.0,323.0,0.0,0.0
103965252.0,334.0,326.0,0.0,0.0
103966908.0,335.0,327.0,0.0,0.0
103968564.0,331.0,324.0,0.0,0.0
103970220.0,329.0,322.0,0.0,0.0
103971876.0,328.0,320.0,0.0,0.0
103973532.0,327.0,320.0,0.0,0.0
103975192.0,330.0,320.0,0.0,0.0
103976848.0,333.0,321.0,0.0,0.0
103978504.0,336.0,323.0,0.0,0.0
103980160.0,338.0,324.0,0.0,0.0
103981816.0,338.0,325.0,0.0,0.0
103983472.0,340.0,325.0,0.0,0.0
103985132.0,337.0,326.0,0.0,0.0
103986788.0,337.0,326.0,0.0,0.0
103988444.0,332.0,323.0,0.0,0.0
103990100.0,328.0,321.0,0.0,0.0
103991756.0,326.0,320.0,0.0,0.0
103993412.0,326.0,319.0,0.0,0.0
103995068.0,328.0,319.0,0.0,0.0
103996724.0,331.0,321.0,0.0,0.0
103998384.0,337.0,324.0,0.0,0.0
104000040.0,340.0,326.0,0.0,0.0
104001696.0,341.0,325.0,0.0,0.0
104003352.0,339.0,325.0,0.0,0.0
104005008.0,339.0,326.0,0.0,0.0
104006676.0,332.0,326.0,0.0,0.0
104008320.0,331.0,324.0,0.0,0.0
104009980.0,328.0,323.0,0.0,0.0
104011636.0,329.0,320.0,0.0,0.0
104013292.0,329.0,318.0,0.0,0.0
104014948.0,330.0,319.0,0.0,0.0
104016604.0,335.0,321.0,0.0,0.0
104018260.0,332.0,324.0,0.0,0.0
104019916.0,337.0,324.0,0.0,0.0
104021572.0,340.0,322.0,0.0,0.0
104023232.0,338.0,321.0,0.0,0.0
104024888.0,339.0,326.0,0.0,0.0
104026544.0,336.0,326.0,0.0,0.0
104028200.0,333.0,326.0,0.0,0.0
104029856.0,331.0,322.0,0.0,0.0
104031512.0,328.0,321.0,0.0,0.0
104033172.0,326.0,320.0,0.0,0.0
104034828.0,325.0,319.0,0.0,0.0
104036484.0,329.0,320.0,0.0,0.0
104038140.0,334.0,320.0,0.0,0.0
104039796.0,338.0,322.0,0.0,0.0
104041452.0,340.0,324.0,0.0,0.0
104043112.0,340.0,326.0,0.0,0.0
104044768.0,342.0,326.0,0.0,0.0
104046424.0,336.0,325.0,0.0,0.0
104048080.0,331.0,325.0,0.0,0.0
104049736.0,325.0,322.0,0.0,0.0
104051392.0,327.0,321.0,0.0,0.0
104053048.0,331.0,321.0,0.0,0.0
104054704.0,329.0,320.0,0.0,0.0
104056360.0,327.0,321.0,0.0,0.0
104058020.0,333.0,322.0,0.0,0.0
104059676.0,339.0,320.0,0.0,0.0
104061332.0,341.0,322.0,0.0,0.0
104062996.0,340.0,323.0,0.0,0.0
104064644.0,338.0,326.0,0.0,0.0
104066304.0,338.0,328.0,0.0,0.0
104067960.0,334.0,327.0,0.0,0.0
104069616.0,330.0,329.0,0.0,0.0
104071272.0,327.0,321.0,0.0,0.0
104072928.0,327.0,316.0,0.0,0.0
104074584.0,329.0,317.0,0.0,0.0
104076240.0,331.0,321.0,0.0,0.0
104077896.0,333.0,321.0,0.0,0.0
104079552.0,337.0,322.0,0.0,0.0
104081212.0,340.0,324.0,0.0,0.0
104082868.0,341.0,327.0,0.0,0.0
104084524.0,336.0,326.0,0.0,0.0
104086180.0,335.0,326.0,0.0,0.0
104087836.0,332.0,325.0,0.0,0.0
104089492.0,331.0,323.0,0.0,0.0
104091152.0,330.0,320.0,0.0,0.0
104092808.0,328.0,318.0,0.0,0.0
104094464.0,327.0,320.0,0.0,0.0
104096120.0,329.0,319.0,0.0,0.0
104097776.0,333.0,320.0,0.0,0.0
104099432.0,335.0,322.0,0.0,0.0
104101088.0,338.0,323.0,0.0,0.0
104102748.0,339.0,325.0,0.0,0.0
104104400.0,339.0,325.0,0.0,0.0
104106060.0,335.0,327.0,0.0,0.0
104107716.0,334.0,326.0,0.0,0.0
104109372.0,331.0,324.0,0.0,0.0
104111028.0,330.0,322.0,0.0,0.0
104112688.0,328.0,318.0,0.0,0.0
104114344.0,328.0,318.0,0.0,0.0
104116000.0,327.0,320.0,0.0,0.0
104117656.0,332.0,320.0,0.0,0.0
104119320.0,337.0,321.0,0.0,0.0
104120968.0,341.0,326.0,0.0,0.0
104122624.0,338.0,326.0,0.0,0.0
104124280.0,339.0,326.0,0.0,0.0
104125936.0,339.0,326.0,0.0,0.0
104127596.0,336.0,324.0,0.0,0.0
104129252.0,334.0,324.0,0.0,0.0
104130908.0,329.0,322.0,0.0,0.0
104132564.0,328.0,323.0,0.0,0.0
104134220.0,321.0,320.0,0.0,0.0
104135876.0,330.0,321.0,0.0,0.0
104137536.0,336.0,320.0,0.0,0.0
104139192.0,332.0,320.0,0.0,0.0
104140848.0,337.0,321.0,0.0,0.0
104142504.0,340.0,325.0,0.0,0.0
104144160.0,340.0,327.0,0.0,0.0
104145816.0,342.0,325.0,0.0,0.0
104147472.0,337.0,324.0,0.0,0.0
104149128.0,333.0,326.0,0.0,0.0
104150788.0,326.0,324.0,0.0,0.0
104152444.0,325.0,320.0,0.0,0.0
104154100.0,327.0,320.0,0.0,0.0
104155756.0,331.0,319.0,0.0,0.0
104157412.0,332.0,318.0,0.0,0.0
104159068.0,333.0,320.0,0.0,0.0
104160728.0,339.0,323.0,0.0,0.0
104162380.0,340.0,324.0,0.0,0.0
104164040.0,338.0,325.0,0.0,0.0
104165696.0,341.0,327.0,0.0,0.0
104167352.0,336.0,326.0,0.0,0.0
104169008.0,332.0,324.0,0.0,0.0
104170664.0,325.0,321.0,0.0,0.0
104172324.0,327.0,319.0,0.0,0.0
104173980.0,324.0,319.0,0.0,0.0
104175644.0,329.0,319.0,0.0,0.0
104177292.0,330.0,319.0,0.0,0.0
104178948.0,332.0,320.0,0.0,0.0
104180604.0,338.0,323.0,0.0,0.0
104182260.0,340.0,325.0,0.0,0.0
104183916.0,342.0,325.0,0.0,0.0
104185572.0,341.0,327.0,0.0,0.0
104187232.0,334.0,327.0,0.0,0.0
104188888.0,336.0,325.0,0.0,0.0
104190544.0,334.0,320.0,0.0,0.0
104192200.0,322.0,317.0,0.0,0.0
104193856.0,326.0,322.0,0.0,0.0
104195512.0,327.0,320.0,0.0,0.0
104197168.0,328.0,320.0,0.0,0.0
104198828.0,336.0,323.0,0.0,0.0
104200484.0,338.0,322.0,0.0,0.0
104202140.0,339.0,323.0,0.0,0.0
104203796.0,341.0,323.0,0.0,0.0
104205452.0,340.0,326.0,0.0,0.0
104207108.0,336.0,330.0,0.0,0.0
104208768.0,334.0,326.0,0.0,0.0
104210424.0,330.0,323.0,0.0,0.0
104212080.0,328.0,320.0,0.0,0.0
104213736.0,327.0,318.0,0.0,0.0
104215392.0,330.0,319.0,0.0,0.0
104217048.0,331.0,318.0,0.0,0.0
104218708.0,332.0,320.0,0.0,0.0
104220360.0,335.0,322.0,0.0,0.0
104222020.0,339.0,324.0,0.0,0.0
104223676.0,340.0,328.0,0.0,0.0
104225332.0,339.0,326.0,0.0,0.0
104226988.0,337.0,326.0,0.0,0.0
104228644.0,333.0,325.0,0.0,0.0
104230300.0,330.0,323.0,0.0,0.0
104231964.0,329.0,321.0,0.0,0.0
104233612.0,327.0,319.0,0.0,0.0
104235272.0,328.0,319.0,0.0,0.0
104236928.0,328.0,319.0,0.0,0.0
104238584.0,332.0,320.0,0.0,0.0
104240240.0,334.0,321.0,0.0,0.0
104241896.0,338.0,323.0,0.0,0.0
104243552.0,339.0,325.0,0.0,0.0
104245212.0,340.0,326.0,0.0,0.0
104246868.0,338.0,326.0,0.0,0.0
104248524.0,339.0,327.0,0.0,0.0
104250180.0,331.0,326.0,0.0,0.0
104251836.0,328.0,322.0,0.0,0.0
104253492.0,327.0,320.0,0.0,0.0
104255152.0,328.0,319.0,0.0,0.0
104256808.0,328.0,319.0,0.0,0.0
104258464.0,331.0,320.0,0.0,0.0
104260120.0,334.0,322.0,0.0,0.0
104261776.0,341.0,322.0,0.0,0.0
104263432.0,340.0,324.0,0.0,0.0
104265088.0,341.0,328.0,0.0,0.0
104266748.0,338.0,329.0,0.0,0.0
104268400.0,334.0,326.0,0.0,0.0
104270056.0,334.0,323.0,0.0,0.0
104271716.0,330.0,322.0,0.0,0.0
104273372.0,330.0,320.0,0.0,0.0
104275028.0,329.0,320.0,0.0,0.0
104276684.0,327.0,318.0,0.0,0.0
104278340.0,330.0,319.0,0.0,0.0
104280000.0,330.0,321.0,0.0,0.0
104281652.0,337.0,324.0,0.0,0.0
104283312.0,338.0,325.0,0.0,0.0
104284968.0,344.0,324.0,0.0,0.0
104286624.0,339.0,326.0,0.0,0.0
104288284.0,337.0,325.0,0.0,0.0
104289936.0,335.0,325.0,0.0,0.0
104291592.0,331.0,322.0,0.0,0.0
104293252.0,327.0,320.0,0.0,0.0
104294908.0,326.0,318.0,0.0,0.0
104296564.0,330.0,319.0,0.0,0.0
104298220.0,329.0,320.0,0.0,0.0
104299876.0,332.0,321.0,0.0,0.0
104301532.0,339.0,323.0,0.0,0.0
104303188.0,340.0,325.0,0.0,0.0
104304844.0,340.0,325.0,0.0,0.0
104306504.0,339.0,325.0,0.0,0.0
104308160.0,332.0,326.0,0.0,0.0
104309816.0,330.0,325.0,0.0,0.0
104311472.0,328.0,322.0,0.0,0.0
104313128.0,328.0,321.0,0.0,0.0
104314784.0,332.0,322.0,0.0,0.0
104316440.0,331.0,321.0,0.0,0.0
104318100.0,331.0,319.0,0.0,0.0
104319756.0,334.0,320.0,0.0,0.0
104321412.0,338.0,322.0,0.0,0.0
104323068.0,339.0,324.0,0.0,0.0
104324728.0,339.0,325.0,0.0,0.0
104326384.0,340.0,326.0,0.0,0.0
104328040.0,334.0,328.0,0.0,0.0
104329696.0,333.0,327.0,0.0,0.0
104331352.0,329.0,324.0,0.0,0.0
104333008.0,331.0,321.0,0.0,0.0
104334664.0,326.0,317.0,0.0,0.0
104336320.0,330.0,318.0,0.0,0.0
104337980.0,331.0,319.0,0.0,0.0
104339636.0,333.0,320.0,0.0,0.0
104341292.0,336.0,321.0,0.0,1.0
104342948.0,339.0,324.0,0.0,1.0
104344604.0,339.0,325.0,0.0,1.0
104346260.0,338.0,326.0,0.0,1.0
104347916.0,337.0,327.0,0.0,1.0
104349572.0,334.0,325.0,0.0,1.0
104351232.0,331.0,322.0,0.0,1.0
104352888.0,329.0,318.0,0.0,1.0
104354544.0,326.0,320.0,0.0,1.0
104356200.0,327.0,320.0,0.0,1.0
104357856.0,329.0,319.0,0.0,1.0
104359512.0,331.0,321.0,0.0,1.0
104361172.0,336.0,326.0,0.0,1.0
104362824.0,338.0,323.0,0.0,1.0
104364484.0,340.0,324.0,0.0,1.0
104366140.0,339.0,326.0,0.0,1.0
104367796.0,339.0,324.0,0.0,1.0
104369452.0,335.0,325.0,0.0,1.0
104371108.0,331.0,324.0,0.0,1.0
104372764.0,328.0,322.0,0.0,1.0
104374420.0,329.0,320.0,0.0,1.0
104376080.0,329.0,317.0,0.0,1.0
104377736.0,326.0,318.0,0.0,1.0
104379400.0,332.0,320.0,0.0,1.0
104381048.0,334.0,322.0,0.0,1.0
104382704.0,339.0,326.0,0.0,1.0
104384360.0,339.0,325.0,0.0,1.0
104386016.0,338.0,326.0,0.0,1.0
104387676.0,338.0,328.0,0.0,1.0
104389332.0,335.0,325.0,0.0,1.0
104390988.0,333.0,323.0,0.0,1.0
104392644.0,330.0,322.0,0.0,1.0
104394300.0,326.0,320.0,0.0,1.0
104395956.0,328.0,319.0,0.0,1.0
104397612.0,329.0,319.0,0.0,1.0
104399272.0,334.0,322.0,0.0,1.0
104400928.0,333.0,321.0,0.0,1.0
104402584.0,336.0,322.0,0.0,1.0
104404240.0,339.0,324.0,0.0,1.0
104405896.0,340.0,326.0,0.0,1.0
104407552.0,339.0,326.0,0.0,1.0
104409208.0,334.0,325.0,0.0,1.0
104410864.0,328.0,324.0,0.0,1.0
104412524.0,328.0,322.0,0.0,1.0
104414180.0,330.0,321.0,0.0,1.0
104415836.0,331.0,320.0,0.0,1.0
104417492.0,332.0,320.0,0.0,1.0
104419148.0,329.0,320.0,0.0,1.0
104420804.0,328.0,320.0,0.0,1.0
104422464.0,337.0,321.0,0.0,1.0
104424120.0,337.0,325.0,0.0,1.0
104425776.0,340.0,326.0,0.0,1.0
104427432.0,340.0,326.0,0.0,1.0
104429088.0,336.0,326.0,0.0,1.0
104430744.0,336.0,325.0,0.0,1.0
104432404.0,335.0,323.0,0.0,1.0
104434060.0,327.0,320.0,0.0,1.0
104435724.0,325.0,318.0,0.0,1.0
104437372.0,321.0,318.0,0.0,1.0
104439028.0,327.0,319.0,0.0,1.0
104440684.0,335.0,320.0,0.0,1.0
104442340.0,341.0,322.0,0.0,1.0
104443996.0,341.0,324.0,0.0,1.0
104445656.0,338.0,326.0,0.0,1.0
104447312.0,334.0,327.0,0.0,1.0
104448968.0,338.0,328.0,0.0,1.0
104450624.0,336.0,327.0,0.0,1.0
104452280.0,332.0,323.0,0.0,1.0
104453936.0,331.0,320.0,0.0,1.0
104455596.0,329.0,320.0,0.0,1.0
104457248.0,328.0,320.0,0.0,1.0
104458908.0,327.0,319.0,0.0,1.0
104460564.0,331.0,320.0,0.0,1.0
104462220.0,336.0,323.0,0.0,1.0
104463876.0,340.0,325.0,0.0,1.0
104465532.0,345.0,326.0,0.0,1.0
104467192.0,339.0,324.0,0.0,1.0
104468848.0,337.0,323.0,0.0,1.0
104470504.0,334.0,326.0,0.0,1.0
104472160.0,329.0,324.0,0.0,1.0
104473816.0,328.0,321.0,0.0,1.0
104475472.0,328.0,320.0,0.0,1.0
104477128.0,328.0,320.0,0.0,0.0
104478784.0,329.0,320.0,0.0,0.0
104480440.0,332.0,320.0,0.0,0.0
104482100.0,336.0,322.0,0.0,0.0
104483756.0,339.0,323.0,0.0,0.0
104485412.0,341.0,325.0,0.0,0.0
104487068.0,337.0,326.0,0.0,0.0
104488724.0,335.0,326.0,0.0,0.0
104490380.0,334.0,325.0,0.0,0.0
104492048.0,333.0,323.0,0.0,0.0
104493692.0,329.0,322.0,0.0,0.0
104495352.0,327.0,320.0,0.0,0.0
104497008.0,325.0,319.0,0.0,0.0
104498664.0,330.0,319.0,0.0,0.0
104500320.0,333.0,321.0,0.0,0.0
104501976.0,336.0,323.0,0.0,0.0
104503632.0,337.0,323.0,0.0,0.0
104505292.0,337.0,322.0,0.0,0.0
104506948.0,340.0,326.0,0.0,0.0
104508604.0,340.0,328.0,0.0,0.0
104510260.0,336.0,326.0,0.0,0.0
104511916.0,330.0,324.0,0.0,0.0
104513572.0,328.0,322.0,0.0,0.0
104515228.0,328.0,323.0,0.0,0.0
104516888.0,332.0,320.0,0.0,0.0
104518544.0,331.0,319.0,0.0,0.0
104520200.0,334.0,319.0,0.0,0.0
104521856.0,333.0,320.0,0.0,0.0
104523512.0,337.0,322.0,0.0,0.0
104525168.0,336.0,324.0,0.0,0.0
104526828.0,337.0,326.0,0.0,0.0
104528484.0,339.0,326.0,0.0,0.0
104530140.0,333.0,327.0,0.0,0.0
104531796.0,336.0,326.0,0.0,0.0
104533452.0,332.0,323.0,0.0,0.0
104535108.0,329.0,320.0,0.0,0.0
104536764.0,329.0,320.0,0.0,0.0
104538420.0,327.0,318.0,0.0,0.0
104540080.0,330.0,320.0,0.0,0.0
104541736.0,334.0,320.0,0.0,0.0
104543392.0,339.0,322.0,0.0,0.0
104545048.0,341.0,324.0,0.0,0.0
104546704.0,340.0,325.0,0.0,0.0
104548368.0,338.0,326.0,0.0,0.0
104550016.0,332.0,326.0,0.0,0.0
104551676.0,331.0,325.0,0.0,0.0
104553332.0,330.0,322.0,0.0,0.0
104554988.0,328.0,319.0,0.0,0.0
104556644.0,327.0,318.0,0.0,0.0
104558300.0,329.0,319.0,0.0,0.0
104559956.0,331.0,325.0,0.0,0.0
104561612.0,331.0,320.0,0.0,0.0
104563268.0,335.0,321.0,0.0,0.0
104564928.0,341.0,326.0,0.0,0.0
104566584.0,339.0,326.0,0.0,0.0
104568240.0,341.0,326.0,0.0,0.0
104569896.0,339.0,326.0,0.0,0.0
104571552.0,335.0,324.0,0.0,0.0
104573212.0,330.0,323.0,0.0,0.0
104574864.0,325.0,321.0,0.0,0.0
104576524.0,328.0,321.0,0.0,0.0
104578180.0,329.0,318.0,0.0,0.0
104579836.0,330.0,317.0,0.0,0.0
104581492.0,333.0,318.0,0.0,0.0
104583148.0,339.0,324.0,0.0,0.0
104584808.0,340.0,324.0,0.0,0.0
104586464.0,340.0,327.0,0.0,0.0
104588120.0,339.0,327.0,0.0,0.0
104589776.0,336.0,327.0,0.0,0.0
104591432.0,335.0,325.0,0.0,0.0
104593088.0,334.0,323.0,0.0,0.0
104594744.0,329.0,320.0,0.0,0.0
104596400.0,325.0,318.0,0.0,0.0
104598056.0,324.0,318.0,0.0,0.0
104599712.0,331.0,319.0,0.0,0.0
104601372.0,333.0,320.0,0.0,0.0
104603028.0,336.0,322.0,0.0,0.0
104604692.0,336.0,324.0,0.0,0.0
104606340.0,339.0,326.0,0.0,0.0
104607996.0,339.0,326.0,0.0,0.0
104609652.0,337.0,327.0,0.0,0.0
104611312.0,336.0,324.0,0.0,0.0
104612968.0,334.0,322.0,0.0,0.0
104614624.0,328.0,317.0,0.0,0.0
104616280.0,324.0,320.0,0.0,0.0
104617936.0,325.0,321.0,0.0,0.0
104619592.0,328.0,322.0,0.0,0.0
104621252.0,334.0,321.0,0.0,0.0
104622908.0,336.0,323.0,0.0,0.0
104624564.0,338.0,323.0,0.0,0.0
104626220.0,340.0,325.0,0.0,0.0
104627876.0,340.0,325.0,0.0,0.0
104629532.0,338.0,326.0,0.0,0.0
104631192.0,337.0,327.0,0.0,0.0
104632848.0,334.0,325.0,0.0,0.0
104634504.0,330.0,323.0,0.0,0.0
104636160.0,328.0,319.0,0.0,0.0
104637816.0,325.0,320.0,0.0,0.0
104639472.0,327.0,318.0,0.0,0.0
104641128.0,331.0,319.0,0.0,0.0
104642784.0,332.0,321.0,0.0,0.0
104644440.0,338.0,324.0,0.0,0.0
104646096.0,340.0,325.0,0.0,0.0
104647756.0,339.0,325.0,0.0,0.0
104649412.0,343.0,329.0,0.0,0.0
104651068.0,334.0,326.0,0.0,0.0
104652724.0,334.0,325.0,0.0,0.0
104654380.0,329.0,322.0,0.0,0.0
104656040.0,326.0,320.0,0.0,0.0
104657696.0,326.0,319.0,0.0,0.0
104659352.0,328.0,319.0,0.0,0.0
104661016.0,332.0,319.0,0.0,0.0
104662664.0,334.0,321.0,0.0,0.0
104664320.0,339.0,322.0,0.0,0.0
104665976.0,340.0,325.0,0.0,0.0
104667636.0,337.0,326.0,0.0,0.0
104669292.0,337.0,326.0,0.0,0.0
104670948.0,335.0,326.0,0.0,0.0
104672604.0,334.0,325.0,0.0,0.0
104674260.0,330.0,324.0,0.0,0.0
104675916.0,327.0,319.0,0.0,0.0
104677572.0,329.0,316.0,0.0,0.0
104679228.0,329.0,315.0,0.0,0.0
104680884.0,330.0,326.0,0.0,0.0
104682544.0,332.0,322.0,0.0,0.0
104684200.0,335.0,322.0,0.0,0.0
104685856.0,334.0,326.0,0.0,0.0
104687512.0,338.0,326.0,0.0,0.0
104689168.0,339.0,325.0,0.0,0.0
104690828.0,338.0,323.0,0.0,0.0
104692480.0,336.0,323.0,0.0,0.0
104694140.0,331.0,323.0,0.0,0.0
104695796.0,328.0,321.0,0.0,0.0
104697452.0,327.0,321.0,0.0,0.0
104699108.0,329.0,322.0,0.0,0.0
104700764.0,330.0,321.0,0.0,0.0
104702420.0,336.0,320.0,0.0,0.0
104704080.0,339.0,326.0,0.0,0.0
104705736.0,340.0,327.0,0.0,0.0
104707392.0,341.0,328.0,0.0,0.0
104709048.0,334.0,319.0,0.0,0.0
104710704.0,332.0,313.0,0.0,0.0
104712360.0,334.0,326.0,0.0,0.0
104714020.0,332.0,324.0,0.0,0.0
104715676.0,332.0,323.0,0.0,0.0
104717340.0,324.0,322.0,0.0,0.0
104718988.0,324.0,320.0,0.0,0.0
104720644.0,330.0,319.0,0.0,0.0
104722300.0,334.0,319.0,0.0,0.0
104723956.0,339.0,322.0,0.0,0.0
104725612.0,337.0,324.0,0.0,0.0
104727272.0,339.0,325.0,0.0,0.0
104728928.0,340.0,326.0,0.0,0.0
104730584.0,336.0,327.0,0.0,0.0
104732240.0,334.0,325.0,0.0,0.0
104733896.0,330.0,321.0,0.0,0.0
104735552.0,329.0,321.0,0.0,0.0
104737208.0,326.0,319.0,0.0,0.0
104738868.0,329.0,317.0,0.0,0.0
104740520.0,329.0,319.0,0.0,0.0
104742180.0,333.0,321.0,0.0,0.0
104743836.0,336.0,323.0,0.0,0.0
104745492.0,339.0,324.0,0.0,0.0
104747148.0,340.0,326.0,0.0,0.0
104748808.0,338.0,324.0,0.0,0.0
104750460.0,337.0,328.0,0.0,0.0
104752120.0,332.0,327.0,0.0,0.0
104753776.0,331.0,322.0,0.0,0.0
104755432.0,329.0,319.0,0.0,0.0
104757088.0,328.0,321.0,0.0,0.0
104758744.0,330.0,318.0,0.0,0.0
104760400.0,330.0,321.0,0.0,0.0
104762060.0,329.0,321.0,0.0,0.0
104763712.0,334.0,320.0,0.0,0.0
104765372.0,340.0,323.0,0.0,0.0
104767028.0,339.0,327.0,0.0,0.0
104768684.0,341.0,326.0,0.0,0.0
104770340.0,341.0,327.0,0.0,0.0
104771996.0,338.0,324.0,0.0,0.0
104773660.0,333.0,323.0,0.0,0.0
104775308.0,328.0,323.0,0.0,0.0
104776968.0,326.0,319.0,0.0,0.0
104778624.0,328.0,319.0,0.0,0.0
104780280.0,328.0,318.0,0.0,0.0
104781936.0,330.0,321.0,0.0,0.0
104783592.0,330.0,323.0,0.0,0.0
104785252.0,334.0,323.0,0.0,0.0
104786904.0,342.0,324.0,0.0,0.0
104788560.0,342.0,326.0,0.0,0.0
104790220.0,341.0,326.0,0.0,0.0
104791876.0,337.0,324.0,0.0,0.0
104793532.0,333.0,325.0,0.0,0.0
104795188.0,329.0,323.0,0.0,0.0
104796844.0,326.0,321.0,0.0,0.0
104798504.0,327.0,320.0,0.0,0.0
104800160.0,328.0,316.0,0.0,0.0
104801816.0,330.0,318.0,0.0,0.0
104803472.0,334.0,320.0,0.0,0.0
104805128.0,338.0,322.0,0.0,0.0
104806784.0,339.0,330.0,0.0,0.0
104808444.0,339.0,327.0,0.0,0.0
104810096.0,336.0,325.0,0.0,0.0
104811756.0,335.0,323.0,0.0,0.0
104813412.0,333.0,324.0,0.0,0.0
104815068.0,331.0,324.0,0.0,0.0
104816724.0,326.0,321.0,0.0,0.0
104818380.0,330.0,320.0,0.0,0.0
104820036.0,331.0,318.0,0.0,0.0
104821696.0,333.0,319.0,0.0,0.0
104823352.0,335.0,318.0,0.0,0.0
104825008.0,334.0,321.0,0.0,0.0
104826664.0,334.0,327.0,0.0,0.0
104828320.0,339.0,327.0,0.0,0.0
104829980.0,341.0,325.0,0.0,0.0
104831632.0,336.0,328.0,0.0,0.0
104833292.0,332.0,327.0,0.0,0.0
104834944.0,328.0,323.0,0.0,0.0
104836604.0,329.0,319.0,0.0,0.0
104838260.0,328.0,317.0,0.0,0.0
104839916.0,328.0,319.0,0.0,0.0
104841572.0,329.0,321.0,0.0,0.0
104843228.0,334.0,320.0,0.0,0.0
104844884.0,337.0,320.0,0.0,0.0
104846544.0,339.0,324.0,0.0,0.0
104848200.0,341.0,325.0,0.0,0.0
104849856.0,341.0,326.0,0.0,0.0
104851512.0,336.0,327.0,0.0,0.0
104853168.0,331.0,325.0,0.0,0.0
104854824.0,330.0,323.0,0.0,0.0
104856480.0,330.0,322.0,0.0,0.0
104858140.0,326.0,319.0,0.0,0.0
104859796.0,327.0,319.0,0.0,0.0
104861452.0,329.0,319.0,0.0,0.0
104863108.0,332.0,319.0,1.0,0.0
104864764.0,337.0,322.0,1.0,0.0
104866420.0,340.0,324.0,1.0,0.0
104868076.0,339.0,327.0,1.0,0.0
104869736.0,339.0,325.0,1.0,0.0
104871392.0,337.0,324.0,1.0,0.0
104873048.0,334.0,322.0,1.0,0.0
104874704.0,327.0,325.0,1.0,0.0
104876360.0,329.0,323.0,1.0,0.0
104878016.0,329.0,319.0,1.0,0.0
104879676.0,329.0,318.0,1.0,0.0
104881328.0,332.0,321.0,1.0,0.0
104882984.0,331.0,322.0,1.0,0.0
104884644.0,335.0,324.0,1.0,0.0
104886300.0,339.0,325.0,1.0,0.0
104887956.0,342.0,327.0,1.0,0.0
104889612.0,340.0,323.0,1.0,0.0
104891272.0,338.0,314.0,1.0,0.0
104892924.0,335.0,325.0,1.0,0.0
104894584.0,331.0,324.0,1.0,0.0
104896240.0,329.0,323.0,1.0,0.0
104897896.0,329.0,323.0,1.0,0.0
104899552.0,330.0,321.0,1.0,0.0
104901208.0,327.0,320.0,1.0,0.0
104902868.0,332.0,320.0,1.0,0.0
104904524.0,334.0,321.0,1.0,0.0
104906180.0,337.0,323.0,1.0,0.0
104907836.0,340.0,325.0,1.0,0.0
104909492.0,339.0,326.0,1.0,0.0
104911148.0,339.0,326.0,1.0,0.0
104912804.0,336.0,326.0,1.0,0.0
104914464.0,333.0,326.0,1.0,0.0
104916116.0,328.0,322.0,1.0,0.0
104917772.0,327.0,319.0,1.0,0.0
104919432.0,328.0,319.0,1.0,0.0
104921096.0,328.0,318.0,1.0,0.0
104922744.0,331.0,319.0,1.0,0.0
104924400.0,333.0,320.0,1.0,0.0
104926056.0,337.0,322.0,1.0,0.0
104927712.0,338.0,325.0,1.0,0.0
104929372.0,339.0,326.0,1.0,0.0
104931028.0,339.0,327.0,1.0,0.0
104932684.0,336.0,325.0,1.0,0.0
104934340.0,335.0,323.0,1.0,0.0
104935996.0,330.0,322.0,1.0,0.0
104937652.0,327.0,320.0,1.0,0.0
104939308.0,325.0,320.0,1.0,0.0
104940968.0,327.0,320.0,1.0,0.0
104942624.0,329.0,322.0,1.0,0.0
104944280.0,334.0,320.0,1.0,0.0
104945936.0,339.0,322.0,1.0,0.0
104947592.0,341.0,326.0,1.0,0.0
104949248.0,340.0,328.0,1.0,0.0
104950904.0,337.0,327.0,1.0,0.0
104952560.0,337.0,326.0,1.0,0.0
104954220.0,336.0,325.0,1.0,0.0
104955876.0,332.0,323.0,1.0,0.0
104957532.0,329.0,321.0,1.0,0.0
104959188.0,325.0,319.0,1.0,0.0
104960844.0,325.0,318.0,1.0,0.0
104962504.0,327.0,318.0,1.0,0.0
104964160.0,335.0,320.0,1.0,0.0
104965816.0,341.0,324.0,1.0,0.0
104967472.0,339.0,324.0,1.0,0.0
104969128.0,337.0,326.0,1.0,0.0
104970784.0,341.0,326.0,1.0,0.0
104972440.0,338.0,324.0,1.0,0.0
104974100.0,336.0,325.0,1.0,0.0
104975752.0,332.0,323.0,1.0,0.0
104977420.0,322.0,321.0,1.0,0.0
104979068.0,328.0,319.0,1.0,0.0
104980724.0,329.0,319.0,1.0,0.0
104982380.0,328.0,320.0,1.0,0.0
104984036.0,332.0,319.0,1.0,0.0
104985696.0,333.0,322.0,1.0,0.0
104987348.0,337.0,323.0,1.0,0.0
104989008.0,340.0,325.0,1.0,0.0
104990664.0,339.0,326.0,1.0,0.0
104992320.0,338.0,326.0,1.0,0.0
104993976.0,334.0,326.0,1.0,0.0
104995632.0,330.0,324.0,1.0,0.0
104997292.0,329.0,322.0,1.0,0.0
104998948.0,328.0,320.0,1.0,0.0
105000604.0,332.0,319.0,1.0,0.0
105002260.0,334.0,320.0,1.0,0.0
105003916.0,332.0,320.0,1.0,0.0
105005572.0,332.0,323.0,1.0,0.0
105007228.0,332.0,324.0,1.0,0.0
105008884.0,340.0,324.0,1.0,0.0
105010544.0,340.0,322.0,1.0,0.0
105012200.0,343.0,326.0,1.0,0.0
105013856.0,336.0,327.0,1.0,0.0
105015512.0,332.0,326.0,1.0,0.0
105017168.0,327.0,322.0,1.0,0.0
105018824.0,329.0,319.0,1.0,0.0
105020480.0,327.0,320.0,1.0,0.0
105022140.0,328.0,319.0,1.0,0.0
105023796.0,332.0,320.0,1.0,0.0
105025452.0,336.0,320.0,1.0,0.0
105027108.0,338.0,322.0,1.0,0.0
105028764.0,339.0,325.0,1.0,0.0
105030420.0,336.0,325.0,1.0,0.0
105032076.0,339.0,328.0,1.0,0.0
105033744.0,333.0,326.0,1.0,0.0
105035388.0,334.0,324.0,1.0,0.0
105037048.0,331.0,322.0,1.0,0.0
105038704.0,327.0,320.0,1.0,0.0
105040360.0,327.0,319.0,1.0,0.0
105042016.0,327.0,319.0,1.0,0.0
105043672.0,332.0,320.0,1.0,0.0
105045328.0,336.0,321.0,1.0,0.0
105046988.0,337.0,322.0,1.0,0.0
105048644.0,339.0,325.0,1.0,0.0
105050300.0,337.0,325.0,1.0,0.0
105051956.0,338.0,326.0,1.0,0.0
105053612.0,335.0,326.0,1.0,0.0
105055268.0,334.0,324.0,1.0,0.0
105056928.0,332.0,322.0,1.0,0.0
105058584.0,327.0,320.0,1.0,0.0
105060240.0,326.0,319.0,1.0,0.0
105061896.0,330.0,317.0,1.0,0.0
105063552.0,331.0,318.0,1.0,0.0
105065208.0,331.0,323.0,1.0,0.0
105066868.0,335.0,323.0,1.0,0.0
105068524.0,340.0,325.0,1.0,0.0
105070180.0,341.0,324.0,1.0,0.0
105071836.0,339.0,325.0,1.0,0.0
105073492.0,335.0,326.0,1.0,0.0
105075148.0,333.0,325.0,0.0,0.0
105076804.0,329.0,322.0,0.0,0.0
105078460.0,329.0,322.0,0.0,0.0
105080116.0,328.0,319.0,0.0,0.0
105081772.0,331.0,320.0,0.0,0.0
105083432.0,328.0,318.0,0.0,0.0
105085088.0,334.0,318.0,0.0,0.0
105086744.0,339.0,322.0,0.0,0.0
105088400.0,339.0,329.0,0.0,0.0
105090064.0,340.0,325.0,0.0,0.0
105091716.0,339.0,326.0,0.0,0.0
105093368.0,338.0,326.0,0.0,0.0
105095028.0,333.0,325.0,0.0,0.0
105096684.0,330.0,323.0,0.0,0.0
105098340.0,327.0,322.0,0.0,0.0
105099996.0,324.0,320.0,0.0,0.0
105101652.0,327.0,318.0,0.0,0.0
105103308.0,331.0,318.0,0.0,0.0
105104968.0,335.0,320.0,0.0,0.0
105106624.0,337.0,322.0,0.0,0.0
105108280.0,339.0,324.0,0.0,0.0
105109936.0,339.0,324.0,0.0,0.0
105111592.0,339.0,328.0,0.0,0.0
105113248.0,337.0,326.0,0.0,0.0
105114904.0,334.0,325.0,0.0,0.0
105116560.0,330.0,323.0,0.0,0.0
105118220.0,330.0,321.0,0.0,0.0
105119876.0,328.0,319.0,0.0,0.0
105121532.0,329.0,319.0,0.0,0.0
105123188.0,328.0,320.0,0.0,0.0
105124844.0,332.0,320.0,0.0,0.0
105126500.0,337.0,322.0,0.0,0.0
105128160.0,339.0,323.0,0.0,0.0
105129816.0,340.0,324.0,0.0,0.0
105131472.0,341.0,327.0,0.0,0.0
105133128.0,339.0,328.0,0.0,0.0
105134784.0,331.0,326.0,0.0,0.0
105136440.0,331.0,324.0,0.0,0.0
105138096.0,330.0,321.0,0.0,0.0
105139756.0,324.0,320.0,0.0,0.0
105141412.0,327.0,319.0,0.0,0.0
105143068.0,327.0,320.0,0.0,0.0
105144724.0,333.0,320.0,0.0,0.0
105146388.0,336.0,321.0,0.0,0.0
105148036.0,342.0,324.0,0.0,0.0
105149692.0,338.0,327.0,0.0,0.0
105151352.0,338.0,326.0,0.0,0.0
105153008.0,340.0,326.0,0.0,0.0
105154664.0,334.0,325.0,0.0,0.0
105156320.0,334.0,322.0,0.0,0.0
105157976.0,326.0,321.0,0.0,0.0
105159632.0,328.0,320.0,0.0,0.0
105161288.0,328.0,320.0,0.0,0.0
105162948.0,329.0,319.0,0.0,0.0
105164604.0,331.0,320.0,0.0,0.0
105166260.0,335.0,322.0,0.0,0.0
105167916.0,337.0,323.0,0.0,0.0
105169572.0,340.0,325.0,0.0,0.0
105171228.0,341.0,324.0,0.0,0.0
105172884.0,339.0,326.0,0.0,0.0
105174540.0,335.0,326.0,0.0,0.0
105176196.0,331.0,324.0,0.0,0.0
105177856.0,327.0,321.0,0.0,0.0
105179512.0,329.0,319.0,0.0,0.0
105181168.0,328.0,320.0,0.0,0.0
105182824.0,327.0,319.0,0.0,0.0
105184480.0,332.0,320.0,0.0,0.0
105186136.0,333.0,321.0,0.0,0.0
105187796.0,337.0,323.0,0.0,0.0
105189452.0,341.0,324.0,0.0,0.0
105191108.0,338.0,326.0,0.0,0.0
105192764.0,336.0,327.0,0.0,0.0
105194420.0,337.0,326.0,0.0,0.0
105196076.0,335.0,324.0,0.0,0.0
105197732.0,333.0,325.0,0.0,0.0
105199388.0,326.0,322.0,0.0,0.0
105201048.0,327.0,318.0,0.0,0.0
105202712.0,325.0,317.0,0.0,0.0
105204360.0,330.0,322.0,0.0,0.0
105206016.0,337.0,321.0,0.0,0.0
105207672.0,339.0,322.0,0.0,0.0
105209328.0,337.0,324.0,0.0,0.0
105210988.0,338.0,325.0,0.0,0.0
105212644.0,341.0,325.0,0.0,0.0
105214300.0,337.0,326.0,0.0,0.0
105215956.0,336.0,330.0,0.0,0.0
105217612.0,329.0,324.0,0.0,0.0
105219268.0,324.0,317.0,0.0,0.0
105220924.0,328.0,320.0,0.0,0.0
105222584.0,325.0,318.0,0.0,0.0
105224240.0,331.0,322.0,0.0,0.0
105225896.0,334.0,323.0,0.0,0.0
105227552.0,338.0,326.0,0.0,0.0
105229208.0,340.0,325.0,0.0,0.0
105230864.0,340.0,313.0,0.0,0.0
105232520.0,339.0,326.0,0.0,0.0
105234180.0,336.0,327.0,0.0,0.0
105235836.0,334.0,326.0,0.0,0.0
105237492.0,331.0,323.0,0.0,0.0
105239148.0,329.0,320.0,0.0,0.0
105240804.0,327.0,320.0,0.0,0.0
105242460.0,327.0,320.0,0.0,0.0
105244120.0,329.0,320.0,0.0,0.0
105245776.0,331.0,321.0,0.0,0.0
105247432.0,335.0,322.0,0.0,0.0
105249088.0,338.0,324.0,0.0,0.0
105250744.0,340.0,326.0,0.0,0.0
105252400.0,338.0,325.0,0.0,0.0
105254056.0,338.0,325.0,0.0,0.0
105255712.0,335.0,325.0,0.0,0.0
105257368.0,331.0,323.0,0.0,0.0
105259036.0,328.0,322.0,0.0,0.0
105260684.0,326.0,321.0,0.0,0.0
105262340.0,327.0,320.0,0.0,0.0
105263996.0,330.0,320.0,0.0,0.0
105265652.0,337.0,321.0,0.0,0.0
105267308.0,337.0,320.0,0.0,0.0
105268968.0,340.0,323.0,0.0,0.0
105270624.0,337.0,326.0,0.0,0.0
105272280.0,338.0,327.0,0.0,0.0
105273936.0,338.0,327.0,0.0,0.0
105275592.0,336.0,324.0,0.0,0.0
105277248.0,331.0,325.0,0.0,0.0
105278904.0,330.0,321.0,0.0,0.0
105280564.0,328.0,319.0,0.0,0.0
105282216.0,331.0,320.0,0.0,0.0
105283876.0,326.0,320.0,0.0,0.0
105285532.0,333.0,320.0,0.0,0.0
105287188.0,336.0,320.0,0.0,0.0
105288844.0,334.0,321.0,0.0,0.0
105290500.0,338.0,325.0,0.0,0.0
105292156.0,339.0,326.0,0.0,0.0
105293816.0,338.0,327.0,0.0,0.0
105295472.0,335.0,325.0,0.0,0.0
105297128.0,332.0,324.0,0.0,0.0
105298784.0,328.0,322.0,0.0,0.0
105300440.0,325.0,320.0,0.0,0.0
105302096.0,327.0,319.0,0.0,0.0
105303752.0,330.0,319.0,0.0,0.0
105305412.0,333.0,320.0,0.0,0.0
105307068.0,334.0,322.0,0.0,0.0
105308724.0,339.0,322.0,0.0,0.0
105310380.0,342.0,325.0,0.0,0.0
105312036.0,337.0,328.0,0.0,0.0
105313692.0,332.0,326.0,0.0,0.0
105315356.0,335.0,322.0,0.0,0.0
105317008.0,333.0,322.0,0.0,0.0
105318664.0,328.0,324.0,0.0,0.0
105320320.0,327.0,321.0,0.0,0.0
105321976.0,329.0,319.0,0.0,0.0
105323632.0,329.0,320.0,0.0,0.0
105325288.0,331.0,320.0,0.0,0.0
105326944.0,336.0,320.0,0.0,0.0
105328600.0,339.0,321.0,0.0,0.0
105330260.0,340.0,326.0,0.0,0.0
105331916.0,340.0,329.0,0.0,0.0
105333572.0,337.0,327.0,0.0,0.0
105335228.0,337.0,326.0,0.0,0.0
105336884.0,335.0,324.0,0.0,0.0
105338544.0,332.0,322.0,0.0,0.0
105340196.0,328.0,320.0,0.0,0.0
105341852.0,327.0,320.0,0.0,0.0
105343512.0,328.0,319.0,0.0,0.0
105345168.0,329.0,319.0,0.0,0.0
105346824.0,333.0,320.0,0.0,0.0
105348480.0,340.0,324.0,0.0,0.0
105350140.0,335.0,322.0,0.0,0.0
105351792.0,339.0,324.0,0.0,0.0
105353452.0,338.0,326.0,0.0,0.0
105355108.0,336.0,329.0,0.0,0.0
105356764.0,334.0,326.0,0.0,0.0
105358420.0,331.0,322.0,0.0,0.0
105360076.0,328.0,321.0,0.0,0.0
105361732.0,329.0,320.0,0.0,0.0
105363388.0,327.0,319.0,0.0,0.0
105365048.0,329.0,319.0,0.0,0.0
105366704.0,332.0,320.0,0.0,0.0
105368360.0,334.0,322.0,0.0,0.0
105370016.0,338.0,323.0,0.0,0.0
105371676.0,340.0,326.0,0.0,0.0
105373328.0,341.0,327.0,0.0,0.0
105374984.0,337.0,326.0,0.0,0.0
105376644.0,332.0,324.0,0.0,0.0
105378300.0,330.0,323.0,0.0,0.0
105379956.0,329.0,322.0,0.0,0.0
105381612.0,331.0,322.0,0.0,0.0
105383268.0,327.0,319.0,0.0,0.0
105384924.0,330.0,320.0,0.0,0.0
105386580.0,334.0,320.0,0.0,0.0
105388236.0,336.0,321.0,0.0,0.0
105389896.0,338.0,323.0,0.0,0.0
105391552.0,337.0,326.0,0.0,0.0
105393208.0,339.0,326.0,0.0,0.0
105394864.0,340.0,325.0,0.0,0.0
105396520.0,337.0,325.0,0.0,0.0
105398180.0,335.0,326.0,0.0,0.0
105399836.0,326.0,322.0,0.0,0.0
105401488.0,321.0,320.0,0.0,0.0
105403148.0,329.0,320.0,0.0,0.0
105404804.0,327.0,319.0,0.0,0.0
105406460.0,333.0,320.0,0.0,0.0
105408116.0,335.0,321.0,0.0,0.0
105409772.0,338.0,323.0,0.0,0.0
105411432.0,340.0,325.0,0.0,0.0
105413088.0,336.0,326.0,0.0,0.0
105414744.0,338.0,326.0,0.0,0.0
105416400.0,335.0,325.0,0.0,0.0
105418056.0,332.0,325.0,0.0,0.0
105419712.0,330.0,321.0,0.0,0.0
105421368.0,328.0,318.0,0.0,0.0
105423024.0,330.0,318.0,0.0,0.0
105424684.0,328.0,319.0,0.0,0.0
105426340.0,330.0,320.0,0.0,0.0
105427996.0,332.0,321.0,0.0,0.0
105429652.0,339.0,324.0,0.0,0.0
105431308.0,340.0,325.0,0.0,0.0
105432968.0,338.0,327.0,0.0,0.0
105434620.0,335.0,325.0,0.0,0.0
105436280.0,335.0,324.0,0.0,0.0
105437936.0,333.0,323.0,0.0,0.0
105439592.0,329.0,322.0,0.0,0.0
105441248.0,330.0,323.0,0.0,0.0
105442904.0,326.0,321.0,0.0,0.0
105444560.0,329.0,322.0,0.0,0.0
105446216.0,333.0,321.0,0.0,0.0
105447876.0,340.0,320.0,0.0,0.0
105449532.0,337.0,319.0,0.0,0.0
105451188.0,337.0,324.0,0.0,0.0
105452844.0,339.0,328.0,0.0,0.0
105454500.0,340.0,327.0,0.0,1.0
105456160.0,337.0,326.0,0.0,1.0
105457812.0,332.0,325.0,0.0,1.0
105459472.0,330.0,322.0,0.0,1.0
105461128.0,328.0,320.0,0.0,1.0
105462792.0,328.0,319.0,0.0,1.0
105464440.0,330.0,321.0,0.0,1.0
105466096.0,328.0,319.0,0.0,1.0
105467756.0,333.0,320.0,0.0,1.0
105469412.0,339.0,321.0,0.0,1.0
105471064.0,341.0,322.0,0.0,1.0
105472724.0,341.0,325.0,0.0,1.0
105474380.0,339.0,326.0,0.0,1.0
105476036.0,336.0,327.0,0.0,1.0
105477692.0,333.0,329.0,0.0,1.0
105479348.0,327.0,321.0,0.0,1.0
105481008.0,327.0,321.0,0.0,1.0
105482660.0,328.0,319.0,0.0,1.0
105484320.0,328.0,319.0,0.0,1.0
105485976.0,330.0,319.0,0.0,1.0
105487632.0,332.0,319.0,0.0,1.0
105489288.0,336.0,321.0,0.0,1.0
105490944.0,340.0,324.0,0.0,1.0
105492600.0,341.0,325.0,0.0,1.0
105494256.0,343.0,326.0,0.0,1.0
105495916.0,338.0,326.0,0.0,1.0
105497572.0,333.0,325.0,0.0,1.0
105499228.0,321.0,323.0,0.0,1.0
105500884.0,328.0,321.0,0.0,1.0
105502540.0,329.0,320.0,0.0,1.0
105504200.0,328.0,320.0,0.0,1.0
105505856.0,329.0,319.0,0.0,1.0
105507512.0,336.0,319.0,0.0,1.0
105509168.0,334.0,321.0,0.0,1.0
105510824.0,336.0,324.0,0.0,1.0
105512480.0,340.0,326.0,0.0,1.0
105514136.0,340.0,328.0,0.0,1.0
105515792.0,341.0,327.0,0.0,1.0
105517452.0,334.0,325.0,0.0,1.0
105519116.0,332.0,323.0,0.0,1.0
105520764.0,329.0,321.0,0.0,1.0
105522420.0,329.0,321.0,0.0,1.0
105524076.0,330.0,319.0,0.0,1.0
105525732.0,327.0,318.0,0.0,1.0
105527388.0,331.0,319.0,0.0,1.0
105529048.0,334.0,322.0,0.0,1.0
105530704.0,338.0,325.0,0.0,1.0
105532360.0,341.0,327.0,0.0,1.0
105534016.0,337.0,326.0,0.0,1.0
105535672.0,340.0,326.0,0.0,1.0
105537328.0,337.0,324.0,0.0,1.0
105538984.0,333.0,324.0,0.0,0.0
105540640.0,327.0,321.0,0.0,0.0
105542296.0,326.0,320.0,0.0,0.0
105543956.0,330.0,320.0,0.0,0.0
105545612.0,333.0,319.0,0.0,0.0
105547268.0,332.0,321.0,0.0,0.0
105548924.0,331.0,321.0,0.0,0.0
105550580.0,337.0,323.0,0.0,0.0
105552240.0,337.0,323.0,0.0,0.0
105553896.0,330.0,325.0,0.0,0.0
105555552.0,337.0,326.0,0.0,0.0
105557208.0,335.0,326.0,0.0,0.0
105558864.0,332.0,324.0,0.0,0.0
105560520.0,333.0,321.0,0.0,0.0
105562176.0,333.0,320.0,0.0,0.0
105563832.0,332.0,320.0,0.0,0.0
105565492.0,328.0,320.0,0.0,0.0
105567148.0,329.0,320.0,0.0,0.0
105568804.0,328.0,320.0,0.0,0.0
105570460.0,338.0,321.0,0.0,0.0
105572116.0,338.0,325.0,0.0,0.0
105573772.0,341.0,327.0,0.0,0.0
105575440.0,341.0,327.0,0.0,0.0
105577084.0,337.0,323.0,0.0,0.0
105578744.0,333.0,322.0,0.0,0.0
105580400.0,331.0,326.0,0.0,0.0
105582056.0,329.0,324.0,0.0,0.0
105583712.0,328.0,320.0,0.0,0.0
105585368.0,329.0,319.0,0.0,0.0
105587028.0,331.0,320.0,0.0,0.0
105588684.0,332.0,320.0,0.0,0.0
105590340.0,338.0,322.0,0.0,0.0
105591996.0,339.0,324.0,0.0,0.0
105593652.0,339.0,326.0,0.0,0.0
105595308.0,338.0,326.0,0.0,0.0
105596964.0,338.0,326.0,0.0,0.0
105598620.0,336.0,326.0,0.0,0.0
105600280.0,328.0,323.0,0.0,0.0
105601936.0,328.0,321.0,0.0,0.0
105603592.0,326.0,320.0,0.0,0.0
105605248.0,328.0,320.0,0.0,0.0
105606904.0,330.0,319.0,0.0,0.0
105608560.0,333.0,317.0,0.0,0.0
105610216.0,335.0,323.0,0.0,0.0
105611876.0,336.0,326.0,0.0,0.0
105613532.0,340.0,325.0,0.0,0.0
105615188.0,342.0,323.0,0.0,0.0
105616844.0,338.0,326.0,0.0,0.0
105618500.0,334.0,326.0,0.0,0.0
105620156.0,331.0,323.0,0.0,0.0
105621812.0,330.0,321.0,0.0,0.0
105623472.0,325.0,320.0,0.0,0.0
105625128.0,326.0,320.0,0.0,0.0
105626784.0,330.0,319.0,0.0,0.0
105628440.0,333.0,319.0,0.0,0.0
105630096.0,332.0,323.0,0.0,0.0
105631760.0,339.0,326.0,0.0,0.0
105633408.0,339.0,326.0,0.0,0.0
105635064.0,341.0,326.0,0.0,0.0
105636724.0,339.0,326.0,0.0,0.0
105638380.0,335.0,326.0,0.0,0.0
105640036.0,331.0,324.0,0.0,0.0
105641692.0,332.0,322.0,0.0,0.0
105643348.0,330.0,319.0,0.0,0.0
105645008.0,330.0,320.0,0.0,0.0
105646660.0,328.0,321.0,0.0,0.0
105648320.0,334.0,321.0,0.0,0.0
105649976.0,330.0,320.0,0.0,0.0
105651632.0,337.0,323.0,0.0,0.0
105653288.0,342.0,325.0,0.0,0.0
105654944.0,340.0,326.0,0.0,0.0
105656600.0,337.0,327.0,0.0,0.0
105658256.0,333.0,324.0,0.0,0.0
105659916.0,332.0,322.0,0.0,0.0
105661572.0,334.0,321.0,0.0,0.0
105663228.0,329.0,320.0,0.0,0.0
105664884.0,326.0,324.0,0.0,0.0
105666540.0,324.0,320.0,0.0,0.0
105668196.0,331.0,320.0,0.0,0.0
105669852.0,336.0,321.0,0.0,0.0
105671512.0,339.0,324.0,0.0,0.0
105673168.0,340.0,324.0,0.0,0.0
105674824.0,338.0,322.0,0.0,0.0
105676480.0,338.0,327.0,0.0,0.0
105678136.0,337.0,325.0,0.0,0.0
105679792.0,334.0,326.0,0.0,0.0
105681452.0,328.0,324.0,0.0,0.0
105683104.0,327.0,320.0,0.0,0.0
105684764.0,327.0,316.0,0.0,0.0
105686420.0,328.0,316.0,0.0,0.0
105688084.0,333.0,321.0,0.0,0.0
105689732.0,334.0,322.0,0.0,0.0
105691392.0,337.0,323.0,0.0,0.0
105693048.0,338.0,324.0,0.0,0.0
105694700.0,336.0,325.0,0.0,0.0
105696360.0,338.0,326.0,0.0,0.0
105698016.0,338.0,329.0,0.0,0.0
105699672.0,333.0,326.0,0.0,0.0
105701328.0,333.0,323.0,0.0,0.0
105702984.0,331.0,318.0,0.0,0.0
105704644.0,325.0,318.0,0.0,0.0
105706300.0,329.0,319.0,0.0,0.0
105707956.0,329.0,320.0,0.0,0.0
105709612.0,334.0,323.0,0.0,0.0
105711268.0,337.0,325.0,0.0,0.0
105712924.0,341.0,326.0,0.0,0.0
105714580.0,339.0,326.0,0.0,0.0
105716236.0,333.0,326.0,0.0,0.0
105717896.0,335.0,325.0,0.0,0.0
105719552.0,336.0,318.0,0.0,0.0
105721208.0,333.0,322.0,0.0,0.0
105722864.0,330.0,320.0,0.0,0.0
105724520.0,327.0,321.0,0.0,0.0
105726176.0,327.0,320.0,0.0,0.0
105727832.0,328.0,319.0,0.0,0.0
105729488.0,332.0,321.0,0.0,0.0
105731144.0,337.0,322.0,0.0,0.0
105732804.0,339.0,325.0,0.0,0.0
105734460.0,341.0,325.0,0.0,0.0
105736116.0,340.0,325.0,0.0,0.0
105737772.0,338.0,325.0,0.0,0.0
105739428.0,334.0,325.0,0.0,0.0
105741088.0,328.0,322.0,0.0,0.0
105742744.0,328.0,322.0,0.0,0.0
105744408.0,327.0,321.0,0.0,0.0
105746056.0,328.0,319.0,0.0,0.0
105747712.0,329.0,319.0,0.0,0.0
105749368.0,333.0,320.0,0.0,0.0
105751024.0,337.0,322.0,0.0,0.0
105752680.0,340.0,322.0,0.0,0.0
105754340.0,341.0,326.0,0.0,0.0
105755996.0,339.0,326.0,0.0,0.0
105757652.0,336.0,326.0,0.0,0.0
105759308.0,335.0,325.0,0.0,0.0
105760964.0,329.0,324.0,0.0,0.0
105762624.0,327.0,321.0,0.0,0.0
105764276.0,330.0,322.0,0.0,0.0
105765932.0,327.0,320.0,0.0,0.0
105767592.0,331.0,320.0,0.0,0.0
105769248.0,334.0,319.0,0.0,0.0
105770904.0,336.0,322.0,0.0,0.0
105772560.0,339.0,322.0,0.0,0.0
105774220.0,340.0,324.0,0.0,0.0
105775876.0,338.0,326.0,0.0,0.0
105777532.0,336.0,326.0,0.0,0.0
105779188.0,335.0,324.0,0.0,0.0
105780844.0,332.0,327.0,0.0,0.0
105782500.0,330.0,324.0,0.0,0.0
105784156.0,329.0,319.0,0.0,0.0
105785812.0,330.0,316.0,0.0,0.0
105787468.0,330.0,319.0,0.0,0.0
105789128.0,331.0,319.0,0.0,0.0
105790784.0,327.0,318.0,0.0,0.0
105792440.0,337.0,322.0,0.0,0.0
105794096.0,341.0,325.0,0.0,0.0
105795752.0,340.0,330.0,0.0,0.0
105797408.0,338.0,328.0,0.0,0.0
105799064.0,333.0,325.0,0.0,0.0
105800728.0,333.0,324.0,0.0,0.0
105802380.0,330.0,321.0,0.0,0.0
105804036.0,328.0,321.0,0.0,0.0
105805692.0,327.0,320.0,0.0,0.0
105807348.0,327.0,319.0,0.0,0.0
105809004.0,330.0,319.0,0.0,0.0
105810660.0,335.0,320.0,0.0,0.0
105812320.0,340.0,322.0,0.0,0.0
105813976.0,341.0,325.0,0.0,0.0
105815632.0,339.0,327.0,0.0,0.0
105817288.0,338.0,326.0,0.0,0.0
105818944.0,332.0,325.0,0.0,0.0
105820600.0,332.0,324.0,0.0,0.0
105822256.0,330.0,323.0,0.0,0.0
105823912.0,328.0,320.0,0.0,0.0
105825572.0,328.0,319.0,0.0,0.0
105827228.0,329.0,319.0,0.0,0.0
105828884.0,330.0,318.0,0.0,0.0
105830540.0,335.0,322.0,0.0,0.0
105832196.0,340.0,325.0,0.0,0.0
105833852.0,343.0,325.0,0.0,0.0
105835512.0,340.0,326.0,0.0,0.0
105837168.0,338.0,325.0,0.0,0.0
105838824.0,333.0,324.0,0.0,0.0
105840480.0,333.0,321.0,0.0,0.0
105842136.0,330.0,323.0,0.0,0.0
105843792.0,328.0,322.0,0.0,0.0
105845448.0,329.0,319.0,0.0,0.0
105847104.0,328.0,319.0,0.0,0.0
105848764.0,332.0,321.0,0.0,0.0
105850420.0,332.0,322.0,0.0,0.0
105852076.0,337.0,325.0,0.0,0.0
105853732.0,340.0,324.0,0.0,0.0
105855388.0,342.0,324.0,0.0,0.0
105857052.0,341.0,326.0,0.0,0.0
105858704.0,335.0,325.0,0.0,0.0
105860360.0,333.0,324.0,0.0,0.0
105862016.0,330.0,323.0,0.0,0.0
105863672.0,328.0,321.0,0.0,0.0
105865328.0,328.0,319.0,0.0,0.0
105866984.0,328.0,319.0,0.0,0.0
105868644.0,328.0,320.0,0.0,0.0
105870300.0,331.0,320.0,0.0,0.0
105871956.0,336.0,321.0,0.0,0.0
105873612.0,340.0,324.0,0.0,0.0
105875268.0,338.0,325.0,0.0,0.0
105876924.0,339.0,326.0,0.0,0.0
105878580.0,337.0,324.0,0.0,0.0
105880236.0,338.0,327.0,0.0,0.0
105881896.0,331.0,326.0,0.0,0.0
105883552.0,328.0,323.0,0.0,0.0
105885208.0,328.0,322.0,0.0,0.0
105886864.0,332.0,321.0,0.0,0.0
105888520.0,333.0,318.0,0.0,0.0
105890176.0,333.0,316.0,0.0,0.0
105891832.0,335.0,319.0,0.0,0.0
105893492.0,336.0,324.0,0.0,0.0
105895144.0,339.0,326.0,0.0,0.0
105896804.0,341.0,327.0,0.0,0.0
105898460.0,338.0,327.0,0.0,0.0
105900116.0,333.0,326.0,0.0,0.0
105901772.0,334.0,324.0,0.0,0.0
105903428.0,331.0,322.0,0.0,0.0
105905088.0,327.0,320.0,0.0,0.0
105906744.0,328.0,318.0,0.0,0.0
105908400.0,330.0,319.0,0.0,0.0
105910056.0,333.0,319.0,0.0,0.0
105911712.0,334.0,321.0,1.0,0.0
105913372.0,337.0,323.0,1.0,0.0
105915024.0,339.0,325.0,1.0,0.0
105916684.0,339.0,326.0,1.0,0.0
105918340.0,340.0,327.0,1.0,0.0
105919996.0,335.0,325.0,1.0,0.0
105921652.0,332.0,324.0,1.0,0.0
105923308.0,330.0,322.0,1.0,0.0
105924964.0,326.0,320.0,1.0,0.0
105926620.0,328.0,320.0,1.0,0.0
105928276.0,329.0,319.0,1.0,0.0
105929936.0,331.0,320.0,1.0,0.0
105931592.0,334.0,320.0,1.0,0.0
105933248.0,339.0,322.0,1.0,0.0
105934904.0,340.0,324.0,1.0,0.0
105936560.0,339.0,327.0,1.0,0.0
105938216.0,338.0,327.0,1.0,0.0
105939872.0,335.0,325.0,1.0,0.0
105941532.0,333.0,324.0,1.0,0.0
105943188.0,329.0,323.0,1.0,0.0
105944844.0,326.0,320.0,1.0,0.0
105946500.0,330.0,320.0,1.0,0.0
105948156.0,331.0,322.0,1.0,0.0
105949812.0,329.0,320.0,1.0,0.0
105951468.0,335.0,321.0,1.0,0.0
105953124.0,340.0,322.0,1.0,0.0
105954784.0,341.0,325.0,1.0,0.0
105956440.0,335.0,326.0,1.0,0.0
105958096.0,334.0,326.0,1.0,0.0
105959752.0,333.0,325.0,1.0,0.0
105961408.0,334.0,324.0,1.0,0.0
105963064.0,332.0,322.0,1.0,0.0
105964724.0,334.0,324.0,1.0,0.0
105966380.0,327.0,320.0,1.0,0.0
105968036.0,326.0,320.0,1.0,0.0
105969692.0,332.0,319.0,1.0,0.0
105971348.0,331.0,318.0,1.0,0.0
105973004.0,336.0,321.0,1.0,0.0
105974660.0,338.0,323.0,1.0,0.0
105976320.0,342.0,327.0,0.0,0.0
105977976.0,341.0,328.0,0.0,0.0
105979632.0,337.0,323.0,0.0,0.0
105981288.0,335.0,322.0,0.0,0.0
105982944.0,331.0,323.0,0.0,0.0
105984600.0,328.0,321.0,0.0,0.0
105986260.0,326.0,320.0,0.0,0.0
105987916.0,329.0,319.0,0.0,0.0
105989572.0,327.0,320.0,0.0,0.0
105991228.0,326.0,321.0,0.0,0.0
105992884.0,337.0,321.0,0.0,0.0
105994540.0,344.0,324.0,0.0,0.0
105996196.0,340.0,326.0,0.0,0.0
105997852.0,335.0,326.0,0.0,0.0
105999508.0,334.0,325.0,0.0,0.0
106001168.0,337.0,324.0,0.0,0.0
106002824.0,330.0,323.0,0.0,0.0
106004488.0,325.0,322.0,0.0,0.0
106006136.0,328.0,320.0,0.0,0.0
106007792.0,331.0,320.0,0.0,0.0
106009448.0,331.0,319.0,0.0,0.0
106011104.0,334.0,320.0,0.0,0.0
106012764.0,334.0,321.0,0.0,0.0
106014420.0,337.0,326.0,0.0,0.0
106016076.0,339.0,327.0,0.0,0.0
106017732.0,341.0,325.0,0.0,0.0
106019388.0,341.0,327.0,0.0,0.0
106021044.0,335.0,327.0,0.0,0.0
106022700.0,332.0,323.0,0.0,0.0
106024360.0,329.0,320.0,0.0,0.0
106026016.0,327.0,317.0,0.0,0.0
106027672.0,329.0,321.0,0.0,0.0
106029328.0,331.0,319.0,0.0,0.0
106030984.0,335.0,322.0,0.0,0.0
106032640.0,332.0,322.0,0.0,0.0
106034296.0,339.0,323.0,0.0,0.0
106035956.0,338.0,324.0,0.0,0.0
106037612.0,340.0,327.0,0.0,0.0
106039268.0,336.0,327.0,0.0,0.0
106040924.0,334.0,324.0,0.0,0.0
106042580.0,333.0,324.0,0.0,0.0
106044236.0,330.0,322.0,0.0,0.0
106045892.0,326.0,320.0,0.0,0.0
106047548.0,326.0,320.0,0.0,0.0
106049208.0,327.0,318.0,0.0,0.0
106050864.0,331.0,319.0,0.0,0.0
106052520.0,335.0,320.0,0.0,0.0
106054176.0,338.0,323.0,0.0,0.0
106055832.0,340.0,325.0,0.0,0.0
106057488.0,338.0,326.0,0.0,0.0
106059144.0,339.0,327.0,0.0,0.0
106060812.0,336.0,326.0,0.0,0.0
106062460.0,332.0,324.0,0.0,0.0
106064116.0,330.0,322.0,0.0,0.0
106065772.0,326.0,320.0,0.0,0.0
106067428.0,329.0,319.0,0.0,0.0
106069084.0,329.0,319.0,0.0,0.0
106070744.0,335.0,320.0,0.0,0.0
106072396.0,335.0,320.0,0.0,0.0
106074056.0,337.0,322.0,0.0,0.0
106075712.0,339.0,324.0,0.0,0.0
106077368.0,337.0,326.0,0.0,0.0
106079024.0,336.0,327.0,0.0,0.0
106080680.0,339.0,328.0,0.0,0.0
106082340.0,333.0,327.0,0.0,0.0
106083996.0,330.0,324.0,0.0,0.0
106085652.0,326.0,319.0,0.0,0.0
106087308.0,328.0,320.0,0.0,0.0
106088964.0,328.0,321.0,0.0,0.0
106090620.0,331.0,320.0,0.0,0.0
106092276.0,333.0,319.0,0.0,0.0
106093936.0,340.0,318.0,0.0,0.0
106095592.0,342.0,323.0,0.0,0.0
106097248.0,340.0,328.0,0.0,0.0
106098904.0,340.0,329.0,0.0,0.0
106100560.0,336.0,331.0,0.0,0.0
106102216.0,334.0,326.0,0.0,0.0
106103872.0,332.0,321.0,0.0,0.0
106105528.0,330.0,316.0,0.0,0.0
106107188.0,328.0,317.0,0.0,0.0
106108844.0,327.0,321.0,0.0,0.0
106110500.0,330.0,322.0,0.0,0.0
106112156.0,333.0,320.0,0.0,0.0
106113812.0,337.0,322.0,0.0,0.0
106115468.0,338.0,323.0,0.0,0.0
106117136.0,340.0,325.0,0.0,0.0
106118784.0,336.0,326.0,0.0,0.0
106120440.0,338.0,326.0,0.0,0.0
106122096.0,333.0,325.0,0.0,0.0
106123752.0,326.0,318.0,0.0,0.0
106125408.0,321.0,323.0,0.0,0.0
106127064.0,331.0,318.0,0.0,0.0
106128720.0,332.0,319.0,0.0,0.0
106130376.0,331.0,320.0,0.0,0.0
106132036.0,334.0,321.0,0.0,0.0
106133692.0,339.0,322.0,0.0,0.0
106135348.0,340.0,324.0,0.0,0.0
106137004.0,339.0,325.0,0.0,0.0
106138660.0,337.0,325.0,0.0,0.0
106140316.0,339.0,326.0,0.0,0.0
106141976.0,332.0,325.0,0.0,0.0
106143632.0,330.0,323.0,0.0,0.0
106145288.0,329.0,321.0,0.0,0.0
106146944.0,330.0,320.0,0.0,0.0
106148600.0,328.0,321.0,0.0,0.0
106150256.0,330.0,320.0,0.0,0.0
106151916.0,332.0,320.0,0.0,0.0
106153572.0,336.0,321.0,0.0,0.0
106155228.0,338.0,323.0,0.0,0.0
106156884.0,340.0,326.0,0.0,0.0
106158540.0,340.0,326.0,0.0,0.0
106160196.0,338.0,326.0,0.0,0.0
106161852.0,333.0,324.0,0.0,0.0
106163512.0,334.0,322.0,0.0,0.0
106165168.0,333.0,323.0,0.0,0.0
106166824.0,326.0,320.0,0.0,0.0
106168480.0,327.0,320.0,0.0,0.0
106170136.0,328.0,320.0,0.0,0.0
106171792.0,332.0,321.0,0.0,0.0
106173456.0,337.0,321.0,0.0,0.0
106175104.0,336.0,322.0,0.0,0.0
106176764.0,342.0,323.0,0.0,0.0
106178420.0,339.0,324.0,0.0,0.0
106180076.0,335.0,327.0,0.0,0.0
106181732.0,333.0,327.0,0.0,0.0
106183388.0,333.0,325.0,0.0,0.0
106185044.0,330.0,322.0,0.0,0.0
106186704.0,327.0,320.0,0.0,0.0
106188360.0,328.0,319.0,0.0,0.0
106190016.0,328.0,319.0,0.0,0.0
106191672.0,329.0,320.0,0.0,0.0
106193328.0,334.0,322.0,0.0,0.0
106194984.0,339.0,324.0,0.0,0.0
106196640.0,341.0,328.0,0.0,0.0
106198296.0,341.0,326.0,0.0,0.0
106199952.0,340.0,327.0,0.0,0.0
106201612.0,336.0,324.0,0.0,0.0
106203268.0,333.0,326.0,0.0,0.0
106204924.0,330.0,326.0,0.0,0.0
106206580.0,329.0,323.0,0.0,0.0
106208236.0,330.0,322.0,0.0,0.0
106209892.0,329.0,312.0,0.0,0.0
106211548.0,330.0,311.0,0.0,0.0
106213208.0,330.0,320.0,0.0,0.0
106214864.0,338.0,326.0,0.0,0.0
106216520.0,339.0,325.0,0.0,0.0
106218176.0,340.0,326.0,0.0,0.0
106219832.0,341.0,327.0,0.0,0.0
106221488.0,338.0,326.0,0.0,0.0
106223148.0,335.0,325.0,0.0,0.0
106224804.0,330.0,323.0,0.0,0.0
106226460.0,328.0,321.0,0.0,1.0
106228116.0,328.0,319.0,0.0,1.0
106229780.0,329.0,319.0,0.0,1.0
106231428.0,330.0,318.0,0.0,1.0
106233084.0,332.0,320.0,0.0,1.0
106234740.0,335.0,322.0,0.0,1.0
106236396.0,337.0,324.0,0.0,1.0
106238056.0,339.0,326.0,0.0,1.0
106239712.0,339.0,326.0,0.0,1.0
106241368.0,337.0,326.0,0.0,1.0
106243024.0,334.0,325.0,0.0,1.0
106244680.0,331.0,323.0,0.0,1.0
106246340.0,329.0,322.0,0.0,1.0
106247996.0,326.0,321.0,0.0,1.0
106249652.0,325.0,319.0,0.0,1.0
106251308.0,332.0,319.0,0.0,1.0
106252964.0,335.0,318.0,0.0,1.0
106254620.0,335.0,319.0,0.0,1.0
106256276.0,337.0,321.0,0.0,1.0
106257936.0,339.0,324.0,0.0,1.0
106259588.0,339.0,331.0,0.0,1.0
106261244.0,337.0,327.0,0.0,1.0
106262904.0,334.0,326.0,0.0,1.0
106264560.0,333.0,326.0,0.0,1.0
106266216.0,327.0,321.0,0.0,1.0
106267872.0,329.0,319.0,0.0,1.0
106269532.0,328.0,319.0,0.0,1.0
106271188.0,328.0,319.0,0.0,1.0
106272844.0,333.0,319.0,0.0,1.0
106274500.0,338.0,322.0,0.0,1.0
106276156.0,339.0,324.0,0.0,1.0
106277812.0,339.0,325.0,0.0,1.0
106279468.0,338.0,326.0,0.0,1.0
106281128.0,339.0,328.0,0.0,1.0
106282784.0,333.0,327.0,0.0,1.0
106284440.0,332.0,324.0,0.0,1.0
106286104.0,330.0,321.0,0.0,1.0
106287752.0,328.0,319.0,0.0,1.0
106289408.0,329.0,318.0,0.0,1.0
106291064.0,329.0,319.0,0.0,1.0
106292720.0,333.0,321.0,0.0,1.0
106294380.0,335.0,322.0,0.0,1.0
106296036.0,340.0,323.0,0.0,1.0
106297692.0,338.0,325.0,0.0,1.0
106299348.0,334.0,327.0,0.0,1.0
106301004.0,336.0,325.0,0.0,1.0
106302660.0,337.0,324.0,0.0,1.0
106304316.0,333.0,324.0,0.0,1.0
106305976.0,329.0,322.0,0.0,1.0
106307632.0,333.0,320.0,0.0,1.0
106309288.0,329.0,319.0,0.0,1.0
106310944.0,326.0,319.0,0.0,1.0
106312600.0,323.0,320.0,0.0,1.0
106314256.0,333.0,320.0,0.0,1.0
106315912.0,337.0,322.0,0.0,1.0
106317568.0,341.0,325.0,0.0,1.0
106319228.0,340.0,326.0,0.0,1.0
106320884.0,347.0,329.0,0.0,1.0
106322540.0,338.0,326.0,0.0,1.0
106324196.0,335.0,324.0,0.0,1.0
106325852.0,329.0,322.0,0.0,1.0
106327512.0,325.0,321.0,0.0,1.0
106329164.0,331.0,320.0,0.0,1.0
106330824.0,335.0,321.0,0.0,1.0
106332480.0,328.0,320.0,0.0,1.0
106334136.0,332.0,320.0,0.0,1.0
106335792.0,334.0,322.0,0.0,1.0
106337448.0,340.0,324.0,0.0,1.0
106339104.0,341.0,326.0,0.0,1.0
106340760.0,341.0,327.0,0.0,1.0
106342428.0,336.0,325.0,0.0,1.0
106344076.0,334.0,323.0,0.0,1.0
106345732.0,327.0,321.0,0.0,1.0
106347388.0,326.0,322.0,0.0,1.0
106349044.0,322.0,321.0,0.0,1.0
106350700.0,324.0,319.0,0.0,1.0
106352356.0,332.0,319.0,0.0,0.0
106354016.0,336.0,321.0,0.0,0.0
106355672.0,334.0,323.0,0.0,0.0
106357328.0,339.0,327.0,0.0,0.0
106358984.0,348.0,325.0,0.0,0.0
106360640.0,344.0,322.0,0.0,0.0
106362296.0,334.0,321.0,0.0,0.0
106363956.0,328.0,326.0,0.0,0.0
106365612.0,329.0,325.0,0.0,0.0
106367268.0,327.0,325.0,0.0,0.0
106368924.0,329.0,321.0,0.0,0.0
106370580.0,328.0,317.0,0.0,0.0
106372236.0,330.0,316.0,0.0,0.0
106373892.0,334.0,322.0,0.0,0.0
106375548.0,338.0,324.0,0.0,0.0
106377208.0,337.0,324.0,0.0,0.0
106378860.0,339.0,326.0,0.0,0.0
106380520.0,340.0,326.0,0.0,0.0
106382176.0,338.0,325.0,0.0,0.0
106383832.0,333.0,322.0,0.0,0.0
106385488.0,330.0,325.0,0.0,0.0
106387144.0,329.0,322.0,0.0,0.0
106388800.0,327.0,320.0,0.0,0.0
106390460.0,328.0,319.0,0.0,0.0
106392116.0,330.0,318.0,0.0,0.0
106393772.0,332.0,319.0,0.0,0.0
106395428.0,336.0,321.0,0.0,0.0
106397084.0,340.0,327.0,0.0,0.0
106398748.0,340.0,331.0,0.0,0.0
106400400.0,337.0,326.0,0.0,0.0
106402056.0,340.0,326.0,0.0,0.0
106403712.0,336.0,325.0,0.0,0.0
106405368.0,332.0,322.0,0.0,0.0
106407024.0,329.0,321.0,0.0,0.0
106408680.0,327.0,320.0,0.0,0.0
106410340.0,329.0,319.0,0.0,0.0
106411992.0,329.0,318.0,0.0,0.0
106413652.0,335.0,320.0,0.0,0.0
106415308.0,334.0,321.0,0.0,0.0
106416964.0,335.0,323.0,0.0,0.0
106418620.0,338.0,324.0,0.0,0.0
106420276.0,339.0,326.0,0.0,0.0
106421936.0,340.0,326.0,0.0,0.0
106423588.0,336.0,325.0,0.0,0.0
106425244.0,332.0,324.0,0.0,0.0
106426904.0,328.0,322.0,0.0,0.0
106428560.0,328.0,319.0,0.0,0.0
106430216.0,329.0,319.0,0.0,0.0
106431872.0,332.0,319.0,0.0,0.0
106433532.0,334.0,320.0,0.0,0.0
106435184.0,332.0,320.0,0.0,0.0
106436840.0,334.0,323.0,0.0,0.0
106438500.0,337.0,325.0,0.0,0.0
106440156.0,337.0,324.0,0.0,0.0
106441812.0,340.0,327.0,0.0,0.0
106443468.0,336.0,326.0,0.0,0.0
106445124.0,334.0,324.0,0.0,0.0
106446784.0,331.0,324.0,0.0,0.0
106448440.0,327.0,322.0,0.0,0.0
106450096.0,328.0,320.0,0.0,0.0
106451752.0,331.0,319.0,0.0,0.0
106453408.0,333.0,320.0,0.0,0.0
106455068.0,334.0,321.0,0.0,0.0
106456720.0,338.0,323.0,0.0,0.0
106458376.0,340.0,326.0,0.0,0.0
106460036.0,338.0,325.0,0.0,0.0
106461692.0,336.0,324.0,0.0,0.0
106463348.0,337.0,326.0,0.0,0.0
106465004.0,338.0,327.0,0.0,0.0
106466660.0,327.0,324.0,0.0,0.0
106468316.0,326.0,321.0,0.0,0.0
106469976.0,328.0,320.0,0.0,0.0
106471632.0,330.0,319.0,0.0,0.0
106473288.0,331.0,318.0,0.0,0.0
106474944.0,333.0,319.0,0.0,0.0
106476600.0,336.0,322.0,0.0,0.0
106478256.0,337.0,324.0,0.0,0.0
106479912.0,340.0,325.0,0.0,0.0
106481572.0,339.0,327.0,0.0,0.0
106483228.0,338.0,328.0,0.0,0.0
106484884.0,334.0,326.0,0.0,0.0
106486540.0,330.0,321.0,0.0,0.0
106488196.0,329.0,315.0,0.0,0.0
106489852.0,327.0,320.0,0.0,0.0
106491508.0,329.0,319.0,0.0,0.0
106493164.0,329.0,322.0,0.0,0.0
106494824.0,330.0,322.0,0.0,0.0
106496480.0,338.0,326.0,0.0,0.0
106498136.0,336.0,325.0,0.0,0.0
106499792.0,339.0,315.0,0.0,0.0
106501448.0,340.0,323.0,0.0,0.0
106503104.0,338.0,326.0,0.0,0.0
106504760.0,334.0,325.0,0.0,0.0
106506420.0,331.0,322.0,0.0,0.0
106508072.0,328.0,322.0,0.0,0.0
106509732.0,326.0,320.0,0.0,0.0
106511388.0,328.0,325.0,0.0,0.0
106513044.0,330.0,322.0,0.0,0.0
106514700.0,334.0,322.0,0.0,0.0
106516356.0,334.0,322.0,0.0,0.0
106518012.0,340.0,323.0,0.0,0.0
106519672.0,341.0,325.0,0.0,0.0
106521328.0,340.0,326.0,0.0,0.0
106522984.0,337.0,326.0,0.0,0.0
106524640.0,333.0,323.0,0.0,0.0
106526296.0,332.0,323.0,0.0,0.0
106527952.0,330.0,321.0,0.0,0.0
106529612.0,327.0,320.0,0.0,0.0
106531268.0,330.0,322.0,0.0,0.0
106532924.0,328.0,321.0,1.0,0.0
106534580.0,333.0,320.0,1.0,0.0
106536236.0,335.0,320.0,1.0,0.0
106537892.0,338.0,323.0,1.0,0.0
106539548.0,340.0,325.0,1.0,0.0
106541208.0,338.0,326.0,1.0,0.0
106542864.0,338.0,326.0,1.0,0.0
106544520.0,336.0,325.0,1.0,0.0
106546184.0,332.0,325.0,1.0,0.0
106547832.0,332.0,322.0,1.0,0.0
106549488.0,327.0,320.0,1.0,0.0
106551144.0,329.0,319.0,1.0,0.0
106552804.0,322.0,316.0,1.0,0.0
106554460.0,330.0,320.0,1.0,0.0
106556116.0,335.0,320.0,1.0,0.0
106557772.0,338.0,323.0,1.0,0.0
106559428.0,342.0,326.0,1.0,0.0
106561084.0,339.0,327.0,1.0,0.0
106562740.0,339.0,327.0,1.0,0.0
106564400.0,336.0,326.0,1.0,0.0
106566056.0,332.0,326.0,1.0,0.0
106567712.0,329.0,323.0,1.0,0.0
106569368.0,329.0,320.0,1.0,0.0
106571024.0,329.0,318.0,1.0,0.0
106572680.0,329.0,318.0,1.0,0.0
106574336.0,331.0,319.0,1.0,0.0
106575996.0,334.0,320.0,1.0,0.0
106577652.0,338.0,323.0,1.0,0.0
106579308.0,340.0,324.0,1.0,0.0
106580964.0,340.0,328.0,1.0,0.0
106582620.0,338.0,327.0,1.0,0.0
106584276.0,336.0,325.0,1.0,0.0
106585932.0,333.0,323.0,1.0,0.0
106587588.0,331.0,322.0,1.0,0.0
106589244.0,328.0,323.0,1.0,0.0
106590904.0,331.0,322.0,1.0,0.0
106592560.0,330.0,319.0,1.0,0.0
106594216.0,332.0,320.0,1.0,0.0
106595872.0,330.0,319.0,1.0,0.0
106597528.0,331.0,324.0,1.0,0.0
106599188.0,337.0,324.0,1.0,0.0
106600840.0,337.0,326.0,1.0,0.0
106602508.0,342.0,326.0,1.0,0.0
106604156.0,341.0,325.0,1.0,0.0
106605812.0,334.0,325.0,1.0,0.0
106607468.0,329.0,323.0,1.0,0.0
106609124.0,328.0,321.0,1.0,0.0
106610780.0,328.0,321.0,1.0,0.0
106612436.0,328.0,319.0,1.0,0.0
106614096.0,330.0,317.0,1.0,0.0
106615752.0,335.0,317.0,1.0,0.0
106617408.0,335.0,324.0,1.0,0.0
106619064.0,337.0,325.0,1.0,0.0
106620720.0,341.0,326.0,1.0,0.0
106622376.0,337.0,326.0,1.0,0.0
106624032.0,340.0,325.0,1.0,0.0
106625692.0,333.0,324.0,1.0,0.0
106627348.0,329.0,323.0,1.0,0.0
106629004.0,322.0,322.0,1.0,0.0
106630660.0,325.0,320.0,1.0,0.0
106632316.0,329.0,319.0,1.0,0.0
106633972.0,332.0,318.0,1.0,0.0
106635632.0,335.0,319.0,1.0,0.0
106637288.0,337.0,323.0,1.0,0.0
106638944.0,341.0,323.0,1.0,0.0
106640600.0,340.0,325.0,1.0,0.0
106642256.0,338.0,328.0,1.0,0.0
106643912.0,338.0,327.0,1.0,0.0
106645568.0,334.0,324.0,1.0,0.0
106647228.0,334.0,322.0,1.0,0.0
106648884.0,325.0,321.0,1.0,0.0
106650540.0,328.0,321.0,1.0,0.0
106652196.0,330.0,320.0,1.0,0.0
106653852.0,332.0,317.0,1.0,0.0
106655508.0,334.0,321.0,1.0,0.0
106657164.0,337.0,323.0,1.0,0.0
106658828.0,340.0,324.0,1.0,0.0
106660480.0,339.0,325.0,0.0,0.0
106662136.0,334.0,325.0,0.0,0.0
106663792.0,338.0,327.0,0.0,0.0
106665448.0,330.0,325.0,0.0,0.0
106667104.0,330.0,323.0,0.0,0.0
106668760.0,330.0,321.0,0.0,0.0
106670416.0,330.0,320.0,0.0,0.0
106672076.0,335.0,318.0,0.0,0.0
106673732.0,330.0,318.0,0.0,0.0
106675388.0,329.0,318.0,0.0,0.0
106677044.0,331.0,321.0,0.0,0.0
106678700.0,335.0,328.0,0.0,0.0
106680356.0,340.0,327.0,0.0,0.0
106682016.0,339.0,326.0,0.0,0.0
106683672.0,338.0,326.0,0.0,0.0
106685328.0,337.0,326.0,0.0,0.0
106686984.0,334.0,324.0,0.0,0.0
106688640.0,331.0,323.0,0.0,0.0
106690296.0,328.0,321.0,0.0,0.0
106691952.0,328.0,320.0,0.0,0.0
106693608.0,328.0,319.0,0.0,0.0
106695264.0,330.0,320.0,0.0,0.0
106696924.0,334.0,320.0,0.0,0.0
106698580.0,337.0,322.0,0.0,0.0
106700236.0,341.0,324.0,0.0,0.0
106701892.0,338.0,325.0,0.0,0.0
106703548.0,339.0,327.0,0.0,0.0
106705204.0,335.0,325.0,0.0,0.0
106706860.0,332.0,324.0,0.0,0.0
106708520.0,330.0,322.0,0.0,0.0
106710176.0,328.0,321.0,0.0,0.0
106711832.0,330.0,320.0,0.0,0.0
106713488.0,330.0,321.0,0.0,0.0
106715152.0,329.0,322.0,0.0,0.0
106716804.0,331.0,321.0,0.0,0.0
106718456.0,336.0,322.0,0.0,0.0
106720116.0,340.0,323.0,0.0,0.0
106721772.0,339.0,325.0,0.0,0.0
106723428.0,340.0,326.0,0.0,0.0
106725084.0,336.0,327.0,0.0,0.0
106726740.0,334.0,325.0,0.0,0.0
106728400.0,330.0,322.0,0.0,0.0
106730052.0,329.0,324.0,0.0,0.0
106731712.0,330.0,324.0,0.0,0.0
106733368.0,327.0,322.0,0.0,0.0
106735024.0,330.0,320.0,0.0,0.0
106736680.0,334.0,314.0,0.0,0.0
106738336.0,336.0,318.0,0.0,0.0
106739992.0,339.0,326.0,0.0,0.0
106741652.0,340.0,325.0,0.0,0.0
106743308.0,339.0,324.0,0.0,0.0
106744964.0,338.0,325.0,0.0,0.0
106746620.0,333.0,327.0,0.0,0.0
106748276.0,329.0,323.0,0.0,0.0
106749932.0,328.0,319.0,0.0,0.0
106751588.0,328.0,320.0,0.0,0.0
106753244.0,328.0,320.0,0.0,0.0
106754900.0,329.0,320.0,0.0,0.0
106756560.0,334.0,324.0,0.0,0.0
106758216.0,337.0,321.0,0.0,0.0
106759872.0,340.0,326.0,0.0,0.0
106761528.0,339.0,328.0,0.0,0.0
106763184.0,342.0,328.0,0.0,0.0
106764840.0,339.0,329.0,0.0,0.0
106766500.0,335.0,325.0,0.0,0.0
106768156.0,332.0,324.0,0.0,0.0
106769812.0,330.0,321.0,0.0,0.0
106771476.0,329.0,320.0,0.0,0.0
106773124.0,328.0,318.0,0.0,0.0
106774780.0,329.0,318.0,0.0,0.0
106776436.0,333.0,321.0,0.0,0.0
106778092.0,336.0,321.0,0.0,0.0
106779752.0,337.0,323.0,0.0,0.0
106781408.0,341.0,327.0,0.0,0.0
106783064.0,339.0,326.0,0.0,0.0
106784720.0,339.0,326.0,0.0,0.0
106786376.0,333.0,324.0,0.0,0.0
106788036.0,331.0,322.0,0.0,0.0
106789692.0,331.0,327.0,0.0,0.0
106791348.0,328.0,320.0,0.0,0.0
106793004.0,327.0,319.0,0.0,1.0
106794660.0,328.0,319.0,0.0,1.0
106796316.0,331.0,319.0,0.0,1.0
106797972.0,334.0,320.0,0.0,1.0
106799632.0,337.0,323.0,0.0,1.0
106801288.0,340.0,324.0,0.0,1.0
106802944.0,339.0,325.0,0.0,1.0
106804600.0,338.0,326.0,0.0,1.0
106806256.0,333.0,325.0,0.0,1.0
106807912.0,331.0,324.0,0.0,1.0
106809568.0,330.0,322.0,0.0,1.0
106811224.0,330.0,320.0,0.0,1.0
106812880.0,329.0,319.0,0.0,1.0
106814540.0,328.0,319.0,0.0,1.0
106816196.0,331.0,320.0,0.0,1.0
106817852.0,333.0,321.0,0.0,1.0
106819508.0,337.0,323.0,0.0,1.0
106821164.0,339.0,326.0,0.0,1.0
106822820.0,338.0,326.0,0.0,1.0
106824480.0,338.0,326.0,0.0,1.0
106826136.0,336.0,324.0,0.0,1.0
106827800.0,335.0,323.0,0.0,1.0
106829448.0,330.0,324.0,0.0,1.0
106831104.0,327.0,322.0,0.0,1.0
106832760.0,325.0,320.0,0.0,1.0
106834416.0,329.0,319.0,0.0,1.0
106836076.0,331.0,318.0,0.0,1.0
106837732.0,336.0,321.0,0.0,1.0
106839388.0,331.0,323.0,0.0,1.0
106841044.0,341.0,325.0,0.0,1.0
106842700.0,340.0,326.0,0.0,1.0
106844356.0,342.0,326.0,0.0,1.0
106846012.0,335.0,326.0,0.0,1.0
106847668.0,335.0,327.0,0.0,1.0
106849328.0,330.0,323.0,0.0,1.0
106850984.0,330.0,321.0,0.0,1.0
106852640.0,330.0,318.0,0.0,1.0
106854296.0,330.0,318.0,0.0,1.0
106855952.0,328.0,318.0,0.0,1.0
106857608.0,333.0,320.0,0.0,1.0
106859268.0,337.0,324.0,0.0,1.0
106860924.0,337.0,325.0,0.0,1.0
106862580.0,339.0,325.0,0.0,1.0
106864236.0,340.0,324.0,0.0,1.0
106865892.0,337.0,326.0,0.0,1.0
106867548.0,333.0,325.0,0.0,1.0
106869204.0,331.0,321.0,0.0,1.0
106870860.0,326.0,323.0,0.0,1.0
106872520.0,328.0,320.0,0.0,1.0
106874176.0,324.0,320.0,0.0,1.0
106875832.0,329.0,319.0,0.0,1.0
106877488.0,335.0,319.0,0.0,1.0
106879144.0,340.0,322.0,0.0,1.0
106880800.0,338.0,323.0,0.0,1.0
106882460.0,340.0,324.0,0.0,1.0
106884120.0,330.0,326.0,0.0,1.0
106885772.0,338.0,326.0,0.0,1.0
106887428.0,338.0,325.0,0.0,1.0
106889084.0,329.0,322.0,0.0,1.0
106890740.0,328.0,321.0,0.0,1.0
106892396.0,329.0,321.0,0.0,1.0
106894052.0,330.0,320.0,0.0,1.0
106895712.0,329.0,320.0,0.0,1.0
106897368.0,336.0,323.0,0.0,1.0
106899024.0,337.0,322.0,0.0,1.0
106900680.0,339.0,323.0,0.0,1.0
106902336.0,340.0,325.0,0.0,1.0
106903992.0,340.0,325.0,0.0,1.0
106905648.0,333.0,327.0,0.0,1.0
106907304.0,332.0,327.0,0.0,1.0
106908964.0,330.0,324.0,0.0,1.0
106910620.0,332.0,320.0,0.0,1.0
106912276.0,332.0,318.0,0.0,1.0
106913932.0,336.0,321.0,0.0,1.0
106915588.0,325.0,320.0,0.0,0.0
106917244.0,326.0,320.0,0.0,0.0
106918904.0,332.0,320.0,0.0,0.0
106920556.0,339.0,324.0,0.0,0.0
106922216.0,340.0,325.0,0.0,0.0
106923872.0,340.0,327.0,0.0,0.0
106925528.0,341.0,325.0,0.0,0.0
106927184.0,335.0,326.0,0.0,0.0
106928840.0,333.0,325.0,0.0,0.0
106930496.0,330.0,321.0,0.0,0.0
106932156.0,329.0,320.0,0.0,0.0
106933812.0,328.0,317.0,0.0,0.0
106935468.0,329.0,320.0,0.0,0.0
106937124.0,331.0,326.0,0.0,0.0
106938780.0,336.0,322.0,0.0,0.0
106940444.0,338.0,322.0,0.0,0.0
106942096.0,340.0,325.0,0.0,0.0
106943748.0,339.0,326.0,0.0,0.0
106945408.0,336.0,325.0,0.0,0.0
106947064.0,336.0,325.0,0.0,0.0
106948720.0,333.0,323.0,0.0,0.0
106950376.0,330.0,322.0,0.0,0.0
106952032.0,328.0,321.0,0.0,0.0
106953688.0,329.0,321.0,0.0,0.0
106955348.0,327.0,320.0,0.0,0.0
106957004.0,329.0,319.0,0.0,0.0
106958660.0,335.0,321.0,0.0,0.0
106960316.0,339.0,321.0,0.0,0.0
106961972.0,340.0,324.0,0.0,0.0
106963628.0,342.0,328.0,0.0,0.0
106965284.0,337.0,329.0,0.0,0.0
106966944.0,337.0,326.0,0.0,0.0
106968600.0,336.0,324.0,0.0,0.0
106970256.0,334.0,323.0,0.0,0.0
106971912.0,328.0,320.0,0.0,0.0
106973568.0,327.0,322.0,0.0,0.0
106975224.0,321.0,320.0,0.0,0.0
106976880.0,328.0,316.0,0.0,0.0
106978536.0,334.0,316.0,0.0,0.0
106980196.0,338.0,326.0,0.0,0.0
106981852.0,341.0,327.0,0.0,0.0
106983508.0,339.0,326.0,0.0,0.0
106985164.0,339.0,328.0,0.0,0.0
106986820.0,339.0,326.0,0.0,0.0
106988476.0,337.0,325.0,0.0,0.0
106990136.0,328.0,322.0,0.0,0.0
106991792.0,329.0,322.0,0.0,0.0
106993448.0,326.0,319.0,0.0,0.0
106995104.0,328.0,318.0,0.0,0.0
106996764.0,330.0,319.0,0.0,0.0
106998416.0,332.0,319.0,0.0,0.0
107000072.0,338.0,321.0,0.0,0.0
107001728.0,339.0,325.0,0.0,0.0
107003388.0,338.0,327.0,0.0,0.0
107005044.0,339.0,326.0,0.0,0.0
107006700.0,338.0,326.0,0.0,0.0
107008356.0,334.0,324.0,0.0,0.0
107010012.0,328.0,323.0,0.0,0.0
107011668.0,329.0,321.0,0.0,0.0
107013328.0,329.0,322.0,0.0,0.0
107014984.0,329.0,321.0,0.0,0.0
107016640.0,331.0,320.0,0.0,0.0
107018296.0,334.0,322.0,0.0,0.0
107019952.0,335.0,322.0,0.0,0.0
107021608.0,340.0,323.0,0.0,0.0
107023264.0,340.0,325.0,0.0,0.0
107024920.0,338.0,321.0,0.0,0.0
107026580.0,337.0,328.0,0.0,0.0
107028236.0,335.0,328.0,0.0,0.0
107029892.0,334.0,328.0,0.0,0.0
107031548.0,330.0,328.0,0.0,0.0
107033204.0,327.0,314.0,0.0,0.0
107034860.0,330.0,312.0,0.0,0.0
107036520.0,332.0,320.0,0.0,0.0
107038172.0,332.0,320.0,0.0,0.0
107039832.0,335.0,322.0,0.0,0.0
107041488.0,335.0,324.0,0.0,1.0
107043144.0,340.0,326.0,0.0,1.0
107044800.0,340.0,327.0,0.0,1.0
107046456.0,340.0,328.0,0.0,1.0
107048112.0,336.0,327.0,0.0,1.0
107049772.0,332.0,323.0,0.0,1.0
107051428.0,329.0,319.0,0.0,1.0
107053084.0,328.0,318.0,0.0,1.0
107054740.0,327.0,318.0,0.0,1.0
107056396.0,328.0,322.0,0.0,1.0
107058052.0,332.0,321.0,0.0,1.0
107059712.0,334.0,322.0,0.0,1.0
107061364.0,338.0,324.0,0.0,1.0
107063024.0,340.0,325.0,0.0,1.0
107064680.0,338.0,323.0,0.0,1.0
107066336.0,339.0,324.0,0.0,1.0
107067992.0,335.0,329.0,0.0,1.0
107069648.0,332.0,327.0,0.0,1.0
107071308.0,330.0,322.0,0.0,1.0
107072964.0,329.0,317.0,0.0,1.0
107074620.0,329.0,318.0,0.0,1.0
107076276.0,328.0,319.0,0.0,1.0
107077932.0,329.0,320.0,0.0,1.0
107079588.0,334.0,322.0,0.0,1.0
107081244.0,338.0,325.0,0.0,1.0
107082904.0,339.0,326.0,0.0,1.0
107084560.0,341.0,326.0,0.0,1.0
107086216.0,341.0,324.0,0.0,1.0
107087872.0,337.0,325.0,0.0,1.0
107089528.0,333.0,326.0,0.0,1.0
107091184.0,327.0,324.0,0.0,1.0
107092840.0,326.0,320.0,0.0,1.0
107094496.0,329.0,316.0,0.0,1.0
107096156.0,329.0,318.0,0.0,1.0
107097812.0,334.0,324.0,0.0,1.0
107099468.0,332.0,321.0,0.0,1.0
107101124.0,338.0,322.0,0.0,1.0
107102780.0,340.0,324.0,0.0,1.0
107104436.0,338.0,325.0,0.0,1.0
107106096.0,339.0,324.0,0.0,1.0
107107752.0,337.0,325.0,0.0,1.0
107109408.0,335.0,324.0,0.0,1.0
107111064.0,331.0,322.0,0.0,1.0
107112720.0,328.0,321.0,0.0,1.0
107114376.0,326.0,319.0,0.0,1.0
107116032.0,326.0,319.0,0.0,1.0
107117692.0,329.0,320.0,0.0,1.0
107119344.0,334.0,320.0,0.0,1.0
107121004.0,340.0,321.0,0.0,1.0
107122660.0,340.0,324.0,0.0,1.0
107124316.0,340.0,325.0,0.0,1.0
107125972.0,335.0,326.0,0.0,1.0
107127628.0,335.0,326.0,0.0,1.0
107129284.0,335.0,325.0,0.0,1.0
107130944.0,330.0,324.0,0.0,1.0
107132600.0,329.0,322.0,0.0,1.0
107134256.0,330.0,320.0,0.0,1.0
107135912.0,332.0,318.0,0.0,1.0
107137568.0,329.0,317.0,0.0,1.0
107139224.0,332.0,320.0,0.0,1.0
107140880.0,337.0,322.0,0.0,1.0
107142540.0,339.0,324.0,0.0,1.0
107144204.0,338.0,325.0,0.0,1.0
107145852.0,337.0,326.0,0.0,1.0
107147508.0,332.0,328.0,0.0,1.0
107149164.0,332.0,326.0,0.0,1.0
107150820.0,335.0,325.0,0.0,1.0
107152476.0,334.0,320.0,0.0,1.0
107154132.0,334.0,320.0,0.0,1.0
107155792.0,325.0,320.0,0.0,1.0
107157448.0,328.0,319.0,0.0,1.0
107159104.0,328.0,319.0,0.0,1.0
107160760.0,339.0,322.0,0.0,1.0
107162416.0,335.0,322.0,0.0,1.0
107164072.0,343.0,327.0,0.0,1.0
107165732.0,343.0,328.0,0.0,1.0
107167388.0,336.0,326.0,0.0,1.0
107169044.0,335.0,324.0,0.0,0.0
107170700.0,335.0,323.0,0.0,0.0
107172356.0,330.0,322.0,0.0,0.0
107174012.0,329.0,321.0,0.0,0.0
107175668.0,330.0,320.0,0.0,0.0
107177328.0,327.0,318.0,0.0,0.0
107178984.0,331.0,321.0,0.0,0.0
107180640.0,335.0,323.0,0.0,0.0
107182296.0,340.0,322.0,0.0,0.0
107183952.0,337.0,323.0,0.0,0.0
107185608.0,342.0,324.0,0.0,0.0
107187264.0,333.0,325.0,0.0,0.0
107188920.0,334.0,326.0,0.0,0.0
107190580.0,334.0,325.0,0.0,0.0
107192236.0,330.0,322.0,0.0,0.0
107193892.0,328.0,320.0,0.0,0.0
107195548.0,328.0,320.0,0.0,0.0
107197204.0,329.0,319.0,0.0,0.0
107198860.0,332.0,320.0,0.0,0.0
107200524.0,335.0,320.0,0.0,0.0
107202176.0,341.0,326.0,0.0,0.0
107203832.0,337.0,326.0,0.0,0.0
107205488.0,339.0,327.0,0.0,0.0
107207144.0,344.0,327.0,0.0,0.0
107208800.0,340.0,325.0,0.0,0.0
107210456.0,333.0,322.0,0.0,0.0
107212116.0,327.0,320.0,0.0,0.0
107213768.0,326.0,324.0,0.0,0.0
107215428.0,326.0,321.0,0.0,0.0
107217084.0,330.0,320.0,0.0,0.0
107218740.0,331.0,322.0,0.0,0.0
107220396.0,334.0,320.0,0.0,0.0
107222052.0,337.0,323.0,0.0,0.0
107223708.0,340.0,326.0,0.0,0.0
107225368.0,339.0,325.0,0.0,0.0
107227024.0,342.0,323.0,0.0,0.0
107228680.0,336.0,319.0,0.0,0.0
107230336.0,332.0,327.0,1.0,0.0
107231992.0,329.0,324.0,1.0,0.0
107233648.0,330.0,325.0,1.0,0.0
107235308.0,326.0,318.0,1.0,0.0
107236960.0,328.0,319.0,1.0,0.0
107238620.0,330.0,321.0,1.0,0.0
107240276.0,331.0,320.0,1.0,0.0
107241932.0,337.0,322.0,1.0,0.0
107243588.0,341.0,323.0,1.0,0.0
107245244.0,342.0,324.0,1.0,0.0
107246900.0,340.0,326.0,1.0,0.0
107248560.0,338.0,326.0,1.0,0.0
107250212.0,332.0,324.0,1.0,0.0
107251872.0,331.0,323.0,1.0,0.0
107253528.0,327.0,321.0,1.0,0.0
107255184.0,327.0,319.0,1.0,0.0
107256848.0,329.0,320.0,1.0,0.0
107258496.0,331.0,319.0,1.0,0.0
107260156.0,331.0,320.0,1.0,0.0
107261812.0,334.0,322.0,1.0,0.0
107263468.0,342.0,325.0,1.0,0.0
107265124.0,339.0,326.0,1.0,0.0
107266780.0,340.0,327.0,1.0,0.0
107268436.0,337.0,327.0,1.0,0.0
107270092.0,335.0,326.0,1.0,0.0
107271748.0,334.0,324.0,1.0,0.0
107273408.0,331.0,322.0,1.0,0.0
107275064.0,323.0,318.0,1.0,0.0
107276720.0,327.0,318.0,1.0,0.0
107278376.0,329.0,319.0,1.0,0.0
107280032.0,335.0,322.0,1.0,0.0
107281688.0,336.0,323.0,1.0,0.0
107283344.0,337.0,324.0,1.0,0.0
107285004.0,340.0,326.0,1.0,0.0
107286660.0,342.0,327.0,1.0,0.0
107288316.0,340.0,325.0,1.0,0.0
107289972.0,337.0,324.0,1.0,0.0
107291628.0,328.0,323.0,1.0,0.0
107293284.0,327.0,322.0,1.0,0.0
107294940.0,327.0,321.0,1.0,0.0
107296600.0,327.0,321.0,1.0,0.0
107298256.0,330.0,317.0,1.0,0.0
107299912.0,332.0,319.0,1.0,0.0
107301568.0,335.0,321.0,1.0,0.0
107303224.0,338.0,323.0,1.0,0.0
107304880.0,339.0,326.0,1.0,0.0
107306540.0,338.0,328.0,1.0,0.0
107308196.0,339.0,326.0,1.0,0.0
107309852.0,335.0,325.0,1.0,0.0
107311508.0,333.0,325.0,1.0,0.0
107313172.0,330.0,327.0,1.0,0.0
107314820.0,326.0,318.0,1.0,0.0
107316476.0,328.0,307.0,1.0,0.0
107318132.0,327.0,320.0,1.0,0.0
107319788.0,329.0,318.0,1.0,0.0
107321448.0,335.0,322.0,1.0,0.0
107323104.0,340.0,322.0,1.0,0.0
107324760.0,339.0,328.0,1.0,0.0
107326416.0,339.0,323.0,1.0,0.0
107328072.0,338.0,323.0,1.0,0.0
107329728.0,337.0,328.0,1.0,0.0
107331388.0,331.0,328.0,1.0,0.0
107333044.0,330.0,326.0,1.0,0.0
107334700.0,329.0,321.0,1.0,0.0
107336356.0,328.0,320.0,1.0,0.0
107338012.0,328.0,319.0,1.0,0.0
107339668.0,333.0,320.0,1.0,0.0
107341328.0,333.0,320.0,1.0,0.0
107342980.0,336.0,322.0,1.0,0.0
107344640.0,339.0,324.0,1.0,0.0
107346296.0,344.0,328.0,1.0,0.0
107347952.0,340.0,327.0,1.0,0.0
107349608.0,336.0,325.0,1.0,0.0
107351264.0,335.0,323.0,1.0,0.0
107352924.0,331.0,322.0,1.0,0.0
107354580.0,329.0,322.0,1.0,0.0
107356236.0,329.0,323.0,1.0,0.0
107357892.0,330.0,321.0,1.0,0.0
107359548.0,333.0,318.0,1.0,0.0
107361204.0,328.0,318.0,1.0,0.0
107362860.0,331.0,322.0,1.0,0.0
107364516.0,338.0,326.0,1.0,0.0
107366176.0,336.0,326.0,1.0,0.0
107367832.0,340.0,325.0,1.0,0.0
107369496.0,340.0,325.0,1.0,0.0
107371144.0,336.0,324.0,1.0,0.0
107372800.0,331.0,323.0,1.0,0.0
107374456.0,329.0,321.0,1.0,0.0
107376112.0,328.0,320.0,1.0,0.0
107377768.0,329.0,319.0,1.0,0.0
107379428.0,333.0,319.0,1.0,0.0
107381084.0,333.0,320.0,1.0,0.0
107382740.0,335.0,322.0,1.0,0.0
107384396.0,336.0,324.0,1.0,0.0
107386052.0,341.0,324.0,1.0,0.0
107387708.0,340.0,326.0,1.0,0.0
107389368.0,337.0,326.0,1.0,0.0
107391020.0,335.0,325.0,1.0,0.0
107392680.0,331.0,322.0,1.0,0.0
107394336.0,330.0,322.0,1.0,0.0
107395992.0,327.0,321.0,1.0,0.0
107397648.0,329.0,321.0,1.0,0.0
107399304.0,330.0,319.0,1.0,0.0
107400960.0,333.0,320.0,1.0,0.0
107402620.0,336.0,322.0,1.0,0.0
107404276.0,338.0,323.0,1.0,0.0
107405932.0,342.0,324.0,1.0,0.0
107407588.0,339.0,326.0,1.0,0.0
107409244.0,333.0,325.0,1.0,0.0
107410900.0,337.0,324.0,1.0,0.0
107412556.0,331.0,324.0,1.0,0.0
107414216.0,323.0,325.0,1.0,0.0
107415872.0,324.0,320.0,1.0,0.0
107417528.0,332.0,319.0,1.0,0.0
107419184.0,332.0,319.0,1.0,0.0
107420840.0,332.0,319.0,1.0,0.0
107422496.0,336.0,321.0,0.0,0.0
107424156.0,340.0,323.0,0.0,0.0
107425820.0,340.0,325.0,0.0,0.0
107427468.0,339.0,326.0,0.0,0.0
107429124.0,337.0,326.0,0.0,0.0
107430780.0,339.0,325.0,0.0,0.0
107432436.0,330.0,324.0,0.0,0.0
107434092.0,325.0,322.0,0.0,0.0
107435748.0,327.0,320.0,0.0,0.0
107437408.0,330.0,319.0,0.0,0.0
107439064.0,331.0,318.0,0.0,0.0
107440720.0,333.0,320.0,0.0,0.0
107442376.0,336.0,320.0,0.0,0.0
107444032.0,334.0,322.0,0.0,0.0
107445688.0,344.0,327.0,0.0,0.0
107447344.0,332.0,327.0,0.0,0.0
107449004.0,337.0,326.0,0.0,0.0
107450660.0,336.0,322.0,0.0,0.0
107452316.0,332.0,323.0,0.0,0.0
107453972.0,330.0,325.0,0.0,0.0
107455628.0,329.0,321.0,0.0,0.0
107457284.0,328.0,320.0,0.0,0.0
107458940.0,330.0,318.0,0.0,0.0
107460600.0,331.0,320.0,0.0,0.0
107462256.0,333.0,322.0,0.0,0.0
107463912.0,339.0,325.0,0.0,0.0
107465568.0,337.0,324.0,0.0,0.0
107467224.0,340.0,326.0,0.0,0.0
107468880.0,339.0,327.0,0.0,0.0
107470536.0,338.0,326.0,0.0,0.0
107472196.0,335.0,324.0,0.0,0.0
107473848.0,329.0,321.0,0.0,0.0
107475508.0,327.0,323.0,0.0,0.0
107477164.0,328.0,320.0,0.0,0.0
107478820.0,329.0,318.0,0.0,0.0
107480476.0,333.0,320.0,0.0,0.0
107482140.0,331.0,319.0,0.0,0.0
107483788.0,338.0,321.0,0.0,1.0
107485448.0,341.0,328.0,0.0,1.0
107487104.0,338.0,326.0,0.0,1.0
107488760.0,337.0,324.0,0.0,1.0
107490416.0,336.0,326.0,0.0,1.0
107492072.0,335.0,325.0,0.0,1.0
107493732.0,331.0,322.0,0.0,1.0
107495384.0,330.0,321.0,0.0,1.0
107497044.0,327.0,319.0,0.0,1.0
107498700.0,329.0,318.0,0.0,1.0
107500356.0,330.0,320.0,0.0,1.0
107502012.0,333.0,323.0,0.0,1.0
107503668.0,335.0,325.0,0.0,1.0
107505324.0,337.0,327.0,0.0,1.0
107506980.0,338.0,323.0,0.0,1.0
107508640.0,338.0,312.0,0.0,1.0
107510296.0,338.0,325.0,0.0,1.0
107511952.0,334.0,326.0,0.0,1.0
107513608.0,333.0,325.0,0.0,1.0
107515264.0,330.0,322.0,0.0,1.0
107516920.0,328.0,320.0,0.0,1.0
107518580.0,328.0,320.0,0.0,1.0
107520236.0,327.0,319.0,0.0,1.0
107521892.0,334.0,320.0,0.0,1.0
107523548.0,337.0,322.0,0.0,1.0
107525204.0,337.0,324.0,0.0,1.0
107526860.0,339.0,326.0,0.0,1.0
107528516.0,338.0,326.0,0.0,1.0
107530172.0,339.0,327.0,0.0,1.0
107531832.0,334.0,324.0,0.0,1.0
107533484.0,332.0,323.0,0.0,1.0
107535144.0,331.0,322.0,0.0,1.0
107536800.0,326.0,321.0,0.0,1.0
107538460.0,327.0,326.0,0.0,1.0
107540112.0,329.0,321.0,0.0,1.0
107541768.0,332.0,319.0,0.0,1.0
107543428.0,335.0,318.0,0.0,1.0
107545084.0,337.0,321.0,0.0,1.0
107546740.0,343.0,325.0,0.0,1.0
107548396.0,340.0,326.0,0.0,1.0
107550052.0,338.0,326.0,0.0,1.0
107551708.0,335.0,327.0,0.0,1.0
107553368.0,331.0,324.0,0.0,1.0
107555020.0,329.0,320.0,0.0,1.0
107556680.0,327.0,319.0,0.0,1.0
107558336.0,328.0,319.0,0.0,1.0
107559992.0,328.0,319.0,0.0,1.0
107561648.0,331.0,320.0,0.0,1.0
107563304.0,335.0,321.0,0.0,1.0
107564964.0,338.0,323.0,0.0,1.0
107566616.0,339.0,325.0,0.0,1.0
107568276.0,339.0,324.0,0.0,1.0
107569932.0,338.0,328.0,0.0,1.0
107571588.0,336.0,325.0,0.0,1.0
107573244.0,333.0,323.0,0.0,1.0
107574900.0,329.0,322.0,0.0,1.0
107576560.0,328.0,320.0,0.0,1.0
107578216.0,328.0,321.0,0.0,1.0
107579868.0,332.0,322.0,0.0,1.0
107581528.0,330.0,321.0,0.0,1.0
107583184.0,334.0,319.0,0.0,1.0
107584840.0,338.0,323.0,0.0,1.0
107586496.0,341.0,326.0,0.0,1.0
107588152.0,338.0,325.0,0.0,1.0
107589812.0,337.0,326.0,0.0,1.0
107591468.0,335.0,325.0,0.0,1.0
107593124.0,334.0,323.0,0.0,1.0
107594780.0,330.0,322.0,0.0,1.0
107596436.0,333.0,322.0,0.0,1.0
107598092.0,328.0,321.0,0.0,1.0
107599748.0,330.0,319.0,0.0,1.0
107601404.0,331.0,320.0,0.0,1.0
107603064.0,332.0,322.0,0.0,1.0
107604720.0,333.0,323.0,0.0,1.0
107606376.0,338.0,323.0,0.0,1.0
107608032.0,340.0,324.0,0.0,1.0
107609688.0,341.0,325.0,0.0,1.0
107611344.0,337.0,326.0,0.0,1.0
107613000.0,335.0,327.0,0.0,1.0
107614660.0,329.0,323.0,0.0,1.0
107616316.0,330.0,321.0,0.0,1.0
107617972.0,328.0,320.0,0.0,1.0
107619628.0,331.0,319.0,0.0,1.0
107621284.0,332.0,318.0,0.0,1.0
107622940.0,334.0,319.0,0.0,1.0
107624600.0,337.0,322.0,0.0,1.0
107626256.0,333.0,323.0,0.0,1.0
107627912.0,333.0,324.0,0.0,1.0
107629576.0,334.0,325.0,0.0,1.0
107631224.0,338.0,326.0,0.0,1.0
107632880.0,340.0,325.0,0.0,1.0
107634536.0,329.0,323.0,0.0,1.0
107636196.0,326.0,322.0,0.0,1.0
107637848.0,327.0,321.0,0.0,1.0
107639508.0,333.0,320.0,0.0,1.0
107641164.0,332.0,320.0,0.0,1.0
107642820.0,330.0,319.0,0.0,1.0
107644476.0,333.0,321.0,0.0,1.0
107646132.0,340.0,325.0,0.0,1.0
107647788.0,345.0,328.0,0.0,1.0
107649444.0,343.0,328.0,0.0,1.0
107651104.0,342.0,326.0,0.0,1.0
107652760.0,336.0,326.0,0.0,1.0
107654416.0,331.0,323.0,0.0,1.0
107656072.0,329.0,322.0,0.0,1.0
107657728.0,325.0,320.0,0.0,1.0
107659388.0,323.0,320.0,0.0,1.0
107661040.0,330.0,319.0,0.0,1.0
107662696.0,331.0,320.0,0.0,1.0
107664356.0,335.0,324.0,0.0,1.0
107666012.0,339.0,324.0,0.0,1.0
107667668.0,346.0,324.0,0.0,1.0
107669324.0,342.0,326.0,0.0,1.0
107670980.0,340.0,325.0,0.0,1.0
107672636.0,335.0,325.0,0.0,1.0
107674296.0,332.0,324.0,0.0,1.0
107675952.0,329.0,321.0,0.0,1.0
107677608.0,330.0,320.0,0.0,1.0
107679264.0,325.0,319.0,0.0,1.0
107680920.0,327.0,318.0,0.0,1.0
107682576.0,328.0,320.0,0.0,1.0
107684236.0,334.0,321.0,0.0,1.0
107685900.0,338.0,323.0,0.0,1.0
107687548.0,340.0,326.0,0.0,1.0
107689204.0,339.0,328.0,0.0,1.0
107690860.0,338.0,326.0,0.0,1.0
107692516.0,334.0,321.0,0.0,1.0
107694172.0,334.0,320.0,0.0,1.0
107695832.0,332.0,326.0,0.0,1.0
107697488.0,329.0,324.0,0.0,1.0
107699144.0,328.0,320.0,0.0,1.0
107700800.0,328.0,318.0,0.0,1.0
107702456.0,332.0,319.0,0.0,1.0
107704112.0,335.0,320.0,0.0,1.0
107705768.0,337.0,322.0,0.0,1.0
107707428.0,339.0,325.0,0.0,1.0
107709084.0,339.0,325.0,0.0,1.0
107710740.0,338.0,326.0,0.0,1.0
107712396.0,337.0,327.0,0.0,1.0
107714052.0,334.0,326.0,0.0,1.0
107715708.0,326.0,321.0,0.0,1.0
107717364.0,329.0,321.0,0.0,1.0
107719020.0,331.0,319.0,0.0,1.0
107720680.0,329.0,319.0,0.0,1.0
107722336.0,329.0,320.0,0.0,1.0
107723992.0,331.0,320.0,0.0,1.0
107725648.0,338.0,322.0,0.0,1.0
107727304.0,340.0,323.0,0.0,1.0
107728960.0,339.0,325.0,0.0,1.0
107730616.0,340.0,329.0,0.0,1.0
107732272.0,334.0,327.0,0.0,1.0
107733932.0,334.0,325.0,0.0,1.0
107735588.0,329.0,323.0,0.0,1.0
107737244.0,330.0,321.0,0.0,1.0
107738900.0,331.0,320.0,0.0,1.0
107740556.0,327.0,319.0,0.0,1.0
107742220.0,331.0,319.0,0.0,1.0
107743868.0,333.0,320.0,0.0,1.0
107745528.0,337.0,322.0,0.0,1.0
107747184.0,337.0,322.0,0.0,1.0
107748840.0,338.0,323.0,0.0,1.0
107750496.0,338.0,327.0,0.0,1.0
107752152.0,337.0,326.0,0.0,1.0
107753808.0,336.0,325.0,0.0,1.0
107755464.0,333.0,322.0,0.0,1.0
107757124.0,330.0,320.0,0.0,1.0
107758780.0,327.0,319.0,0.0,1.0
107760436.0,327.0,319.0,0.0,1.0
107762092.0,333.0,319.0,0.0,1.0
107763748.0,332.0,320.0,0.0,1.0
107765404.0,331.0,322.0,0.0,1.0
107767064.0,336.0,324.0,0.0,1.0
107768720.0,336.0,325.0,0.0,1.0
107770376.0,339.0,325.0,0.0,1.0
107772032.0,339.0,325.0,0.0,1.0
107773688.0,336.0,326.0,0.0,1.0
107775344.0,334.0,323.0,0.0,1.0
107777000.0,332.0,322.0,0.0,1.0
107778660.0,328.0,320.0,0.0,1.0
107780316.0,330.0,323.0,0.0,1.0
107781972.0,326.0,322.0,0.0,1.0
107783628.0,335.0,321.0,0.0,1.0
107785284.0,336.0,323.0,0.0,1.0
107786940.0,338.0,323.0,0.0,1.0
107788600.0,340.0,326.0,0.0,1.0
107790256.0,340.0,327.0,0.0,1.0
107791912.0,338.0,323.0,0.0,1.0
107793568.0,337.0,320.0,0.0,1.0
107795224.0,333.0,320.0,0.0,1.0
107796880.0,333.0,324.0,1.0,0.0
107798544.0,324.0,324.0,1.0,0.0
107800192.0,327.0,320.0,1.0,0.0
107801848.0,330.0,322.0,1.0,0.0
107803508.0,334.0,320.0,1.0,0.0
107805164.0,334.0,309.0,1.0,0.0
107806820.0,337.0,323.0,1.0,0.0
107808476.0,339.0,326.0,1.0,0.0
107810132.0,339.0,326.0,1.0,0.0
107811788.0,339.0,327.0,1.0,0.0
107813448.0,334.0,327.0,1.0,0.0
107815104.0,333.0,326.0,1.0,0.0
107816760.0,329.0,323.0,1.0,0.0
107818416.0,325.0,320.0,1.0,0.0
107820072.0,333.0,320.0,1.0,0.0
107821728.0,333.0,319.0,1.0,0.0
107823384.0,330.0,320.0,1.0,0.0
107825040.0,328.0,320.0,1.0,0.0
107826700.0,334.0,321.0,1.0,0.0
107828356.0,336.0,322.0,1.0,0.0
107830012.0,342.0,330.0,1.0,0.0
107831668.0,337.0,330.0,1.0,0.0
107833324.0,338.0,327.0,1.0,0.0
107834980.0,338.0,325.0,1.0,0.0
107836640.0,331.0,323.0,1.0,0.0
107838296.0,328.0,321.0,1.0,0.0
107839952.0,327.0,319.0,1.0,0.0
107841608.0,329.0,320.0,1.0,0.0
107843264.0,332.0,319.0,1.0,0.0
107844920.0,336.0,320.0,1.0,0.0
107846576.0,341.0,324.0,1.0,0.0
107848232.0,337.0,326.0,1.0,0.0
107849892.0,338.0,328.0,1.0,0.0
107851548.0,341.0,326.0,1.0,0.0
107853204.0,339.0,323.0,1.0,0.0
107854868.0,335.0,322.0,1.0,0.0
107856516.0,330.0,324.0,1.0,0.0
107858172.0,329.0,322.0,1.0,0.0
107859832.0,326.0,320.0,1.0,0.0
107861488.0,327.0,320.0,1.0,0.0
107863144.0,329.0,319.0,1.0,0.0
107864800.0,334.0,321.0,1.0,0.0
107866456.0,336.0,322.0,1.0,0.0
107868112.0,339.0,323.0,1.0,0.0
107869768.0,341.0,324.0,1.0,0.0
107871424.0,340.0,325.0,1.0,0.0
107873084.0,337.0,326.0,1.0,0.0
107874736.0,335.0,325.0,1.0,0.0
107876396.0,330.0,323.0,1.0,0.0
107878052.0,329.0,321.0,1.0,0.0
107879708.0,322.0,319.0,1.0,0.0
107881364.0,326.0,318.0,1.0,0.0
107883020.0,330.0,319.0,1.0,0.0
107884676.0,333.0,320.0,1.0,0.0
107886336.0,337.0,322.0,1.0,0.0
107887992.0,339.0,324.0,1.0,0.0
107889648.0,342.0,326.0,1.0,0.0
107891304.0,340.0,326.0,1.0,0.0
107892960.0,339.0,326.0,1.0,0.0
107894616.0,335.0,325.0,1.0,0.0
107896272.0,334.0,325.0,1.0,0.0
107897932.0,326.0,322.0,1.0,0.0
107899588.0,329.0,321.0,1.0,0.0
107901244.0,329.0,320.0,1.0,0.0
107902900.0,330.0,319.0,1.0,0.0
107904556.0,332.0,320.0,1.0,0.0
107906212.0,334.0,321.0,1.0,0.0
107907868.0,338.0,324.0,1.0,0.0
107909528.0,339.0,325.0,1.0,0.0
107911192.0,337.0,327.0,1.0,0.0
107912840.0,342.0,328.0,1.0,0.0
107914496.0,338.0,327.0,1.0,0.0
107916152.0,335.0,325.0,1.0,0.0
107917808.0,330.0,322.0,1.0,0.0
107919464.0,329.0,320.0,1.0,0.0
107921120.0,326.0,319.0,1.0,0.0
107922780.0,327.0,318.0,1.0,0.0
107924436.0,328.0,320.0,1.0,0.0
107926092.0,335.0,323.0,1.0,0.0
107927748.0,338.0,324.0,1.0,0.0
107929404.0,339.0,324.0,1.0,0.0
107931064.0,341.0,324.0,1.0,0.0
107932716.0,341.0,327.0,1.0,0.0
107934376.0,336.0,327.0,1.0,0.0
107936032.0,332.0,325.0,1.0,0.0
107937688.0,329.0,322.0,1.0,0.0
107939344.0,330.0,320.0,1.0,0.0
107941000.0,328.0,318.0,1.0,0.0
107942656.0,327.0,319.0,1.0,0.0
107944316.0,331.0,320.0,1.0,0.0
107945972.0,334.0,321.0,1.0,0.0
107947628.0,339.0,322.0,1.0,0.0
107949284.0,338.0,324.0,1.0,0.0
107950940.0,339.0,325.0,1.0,0.0
107952596.0,339.0,326.0,1.0,0.0
107954252.0,335.0,327.0,1.0,0.0
107955912.0,335.0,323.0,1.0,0.0
107957568.0,330.0,322.0,1.0,0.0
107959224.0,328.0,320.0,1.0,0.0
107960880.0,330.0,319.0,1.0,0.0
107962536.0,330.0,321.0,1.0,0.0
107964192.0,330.0,322.0,1.0,0.0
107965848.0,331.0,321.0,1.0,0.0
107967516.0,338.0,323.0,1.0,0.0
107969164.0,341.0,323.0,1.0,0.0
107970820.0,341.0,324.0,1.0,0.0
107972476.0,340.0,326.0,1.0,0.0
107974132.0,338.0,326.0,1.0,0.0
107975788.0,333.0,325.0,1.0,0.0
107977444.0,330.0,322.0,1.0,0.0
107979100.0,330.0,321.0,1.0,0.0
107980760.0,329.0,321.0,1.0,0.0
107982416.0,325.0,320.0,1.0,0.0
107984072.0,327.0,319.0,1.0,0.0
107985728.0,335.0,320.0,1.0,0.0
107987384.0,340.0,321.0,1.0,0.0
107989040.0,339.0,324.0,1.0,0.0
107990700.0,340.0,325.0,1.0,0.0
107992352.0,339.0,326.0,1.0,0.0
107994012.0,337.0,326.0,1.0,0.0
107995668.0,334.0,324.0,1.0,0.0
107997324.0,331.0,323.0,1.0,0.0
107998980.0,329.0,322.0,1.0,0.0
108000636.0,327.0,321.0,1.0,0.0
108002296.0,329.0,320.0,1.0,0.0
108003952.0,331.0,319.0,1.0,0.0
108005608.0,332.0,319.0,1.0,0.0
108007264.0,336.0,319.0,1.0,0.0
108008920.0,339.0,320.0,1.0,0.0
108010576.0,340.0,331.0,1.0,0.0
108012232.0,338.0,327.0,1.0,0.0
108013888.0,336.0,326.0,1.0,0.0
108015544.0,334.0,325.0,1.0,0.0
108017204.0,332.0,324.0,1.0,0.0
108018860.0,330.0,321.0,1.0,0.0
108020516.0,330.0,319.0,1.0,0.0
108022172.0,328.0,319.0,1.0,0.0
108023836.0,328.0,319.0,1.0,0.0
108025488.0,332.0,320.0,1.0,0.0
108027144.0,336.0,322.0,1.0,0.0
108028800.0,338.0,323.0,1.0,0.0
108030456.0,344.0,327.0,1.0,0.0
108032112.0,339.0,326.0,1.0,0.0
108033768.0,341.0,326.0,1.0,0.0
108035424.0,338.0,324.0,1.0,0.0
108037084.0,331.0,323.0,1.0,0.0
108038740.0,317.0,321.0,1.0,0.0
108040396.0,325.0,321.0,1.0,0.0
108042052.0,329.0,323.0,1.0,0.0
108043708.0,331.0,321.0,1.0,0.0
108045364.0,334.0,320.0,1.0,0.0
108047020.0,339.0,322.0,1.0,0.0
108048676.0,336.0,325.0,1.0,0.0
108050336.0,341.0,325.0,1.0,0.0
108051992.0,339.0,325.0,1.0,0.0
108053648.0,337.0,323.0,1.0,0.0
108055304.0,335.0,322.0,1.0,0.0
108056960.0,334.0,325.0,1.0,0.0
108058616.0,330.0,323.0,1.0,0.0
108060272.0,326.0,320.0,1.0,0.0
108061932.0,328.0,320.0,1.0,0.0
108063588.0,329.0,320.0,1.0,0.0
108065244.0,333.0,320.0,1.0,0.0
108066900.0,336.0,320.0,1.0,0.0
108068556.0,338.0,323.0,1.0,0.0
108070212.0,339.0,325.0,1.0,0.0
108071868.0,339.0,326.0,1.0,0.0
108073528.0,339.0,327.0,1.0,0.0
108075184.0,337.0,326.0,1.0,0.0
108076840.0,332.0,324.0,1.0,0.0
108078496.0,329.0,322.0,1.0,0.0
108080156.0,326.0,321.0,1.0,0.0
108081808.0,333.0,321.0,1.0,0.0
108083468.0,330.0,321.0,1.0,0.0
108085124.0,328.0,320.0,1.0,0.0
108086780.0,332.0,320.0,1.0,0.0
108088436.0,339.0,322.0,1.0,0.0
108090092.0,336.0,324.0,1.0,0.0
108091748.0,338.0,326.0,1.0,0.0
108093404.0,340.0,326.0,1.0,0.0
108095064.0,338.0,325.0,1.0,0.0
108096716.0,338.0,327.0,1.0,0.0
108098376.0,330.0,324.0,1.0,0.0
108100032.0,328.0,321.0,1.0,0.0
108101688.0,329.0,320.0,1.0,0.0
108103344.0,329.0,319.0,1.0,0.0
108105000.0,331.0,318.0,1.0,0.0
108106660.0,334.0,320.0,1.0,0.0
108108312.0,334.0,322.0,1.0,0.0
108109972.0,338.0,324.0,1.0,0.0
108111628.0,341.0,324.0,1.0,0.0
108113284.0,340.0,328.0,1.0,0.0
108114940.0,334.0,326.0,0.0,0.0
108116596.0,335.0,325.0,0.0,0.0
108118252.0,331.0,323.0,0.0,0.0
108119908.0,329.0,322.0,0.0,0.0
108121568.0,328.0,320.0,0.0,0.0
108123224.0,329.0,320.0,0.0,0.0
108124880.0,328.0,319.0,0.0,0.0
108126536.0,333.0,318.0,0.0,0.0
108128192.0,338.0,321.0,0.0,0.0
108129848.0,337.0,324.0,0.0,0.0
108131504.0,339.0,327.0,0.0,0.0
108133164.0,342.0,326.0,0.0,0.0
108134820.0,341.0,324.0,0.0,0.0
108136476.0,331.0,325.0,0.0,0.0
108138132.0,330.0,323.0,0.0,0.0
108139788.0,328.0,322.0,0.0,0.0
108141444.0,330.0,319.0,0.0,0.0
108143100.0,326.0,319.0,0.0,0.0
108144760.0,325.0,318.0,0.0,0.0
108146416.0,334.0,320.0,0.0,0.0
108148072.0,332.0,321.0,0.0,0.0
108149728.0,337.0,324.0,0.0,0.0
108151384.0,343.0,326.0,0.0,0.0
108153040.0,339.0,326.0,0.0,0.0
108154696.0,338.0,326.0,0.0,0.0
108156356.0,337.0,325.0,0.0,0.0
108158012.0,335.0,324.0,0.0,0.0
108159668.0,330.0,322.0,0.0,0.0
108161324.0,323.0,319.0,0.0,0.0
108162980.0,329.0,322.0,0.0,0.0
108164636.0,326.0,322.0,0.0,0.0
108166292.0,332.0,320.0,0.0,0.0
108167952.0,339.0,321.0,0.0,0.0
108169608.0,341.0,323.0,0.0,0.0
108171264.0,338.0,324.0,0.0,0.0
108172920.0,339.0,323.0,0.0,0.0
108174576.0,340.0,326.0,0.0,0.0
108176232.0,334.0,327.0,0.0,1.0
108177888.0,333.0,325.0,0.0,1.0
108179544.0,330.0,323.0,0.0,1.0
108181204.0,328.0,321.0,0.0,1.0
108182860.0,328.0,320.0,0.0,1.0
108184516.0,327.0,318.0,0.0,1.0
108186172.0,330.0,320.0,0.0,1.0
108187828.0,334.0,321.0,0.0,1.0
108189484.0,337.0,323.0,0.0,1.0
108191144.0,340.0,326.0,0.0,1.0
108192800.0,339.0,326.0,0.0,1.0
108194456.0,338.0,324.0,0.0,1.0
108196112.0,335.0,320.0,0.0,1.0
108197768.0,332.0,324.0,0.0,1.0
108199424.0,329.0,327.0,0.0,1.0
108201080.0,328.0,320.0,0.0,1.0
108202740.0,330.0,320.0,0.0,1.0
108204392.0,329.0,319.0,0.0,1.0
108206052.0,331.0,320.0,0.0,1.0
108207708.0,334.0,321.0,0.0,1.0
108209364.0,338.0,322.0,0.0,1.0
108211020.0,340.0,325.0,0.0,1.0
108212676.0,341.0,328.0,0.0,1.0
108214336.0,338.0,328.0,0.0,1.0
108215992.0,336.0,326.0,0.0,1.0
108217648.0,334.0,324.0,0.0,1.0
108219304.0,331.0,322.0,0.0,1.0
108220960.0,327.0,320.0,0.0,1.0
108222616.0,329.0,319.0,0.0,1.0
108224276.0,329.0,319.0,0.0,1.0
108225928.0,329.0,318.0,0.0,1.0
108227596.0,334.0,320.0,0.0,1.0
108229244.0,337.0,322.0,0.0,1.0
108230900.0,339.0,326.0,0.0,1.0
108232556.0,338.0,329.0,0.0,1.0
108234212.0,339.0,325.0,0.0,1.0
108235868.0,340.0,325.0,0.0,1.0
108237524.0,333.0,325.0,0.0,1.0
108239184.0,332.0,323.0,0.0,1.0
108240840.0,328.0,321.0,0.0,1.0
108242496.0,326.0,319.0,0.0,1.0
108244152.0,329.0,319.0,0.0,1.0
108245808.0,329.0,319.0,0.0,1.0
108247464.0,332.0,320.0,0.0,1.0
108249124.0,338.0,322.0,0.0,1.0
108250780.0,339.0,324.0,0.0,1.0
108252436.0,339.0,325.0,0.0,1.0
108254092.0,338.0,326.0,0.0,1.0
108255748.0,341.0,325.0,0.0,1.0
108257404.0,337.0,325.0,0.0,1.0
108259060.0,329.0,323.0,0.0,1.0
108260720.0,327.0,321.0,0.0,1.0
108262376.0,324.0,320.0,0.0,1.0
108264032.0,328.0,320.0,0.0,1.0
108265688.0,331.0,320.0,0.0,1.0
108267344.0,333.0,321.0,0.0,1.0
108269000.0,335.0,321.0,0.0,1.0
108270656.0,333.0,322.0,0.0,1.0
108272312.0,344.0,323.0,0.0,1.0
108273972.0,342.0,326.0,0.0,1.0
108275628.0,335.0,326.0,0.0,1.0
108277284.0,335.0,325.0,0.0,1.0
108278940.0,331.0,325.0,0.0,1.0
108280596.0,330.0,323.0,0.0,1.0
108282252.0,327.0,321.0,0.0,1.0
108283920.0,329.0,322.0,0.0,0.0
108285568.0,331.0,320.0,0.0,0.0
108287224.0,332.0,320.0,0.0,0.0
108288880.0,333.0,320.0,0.0,0.0
108290536.0,338.0,322.0,0.0,0.0
108292192.0,338.0,323.0,0.0,0.0
108293848.0,340.0,325.0,0.0,0.0
108295508.0,339.0,327.0,0.0,0.0
108297160.0,336.0,328.0,0.0,0.0
108298820.0,334.0,324.0,0.0,0.0
108300476.0,332.0,322.0,0.0,0.0
108302132.0,329.0,321.0,0.0,0.0
108303788.0,323.0,319.0,0.0,0.0
108305444.0,324.0,319.0,0.0,0.0
108307104.0,328.0,318.0,0.0,0.0
108308756.0,339.0,319.0,0.0,0.0
108310416.0,341.0,322.0,0.0,0.0
108312072.0,340.0,324.0,0.0,0.0
108313728.0,335.0,325.0,0.0,0.0
108315384.0,337.0,326.0,0.0,0.0
108317040.0,335.0,326.0,0.0,0.0
108318696.0,335.0,325.0,0.0,0.0
108320352.0,331.0,322.0,0.0,0.0
108322012.0,326.0,320.0,0.0,0.0
108323668.0,324.0,320.0,0.0,0.0
108325324.0,330.0,320.0,0.0,0.0
108326980.0,334.0,319.0,0.0,0.0
108328636.0,336.0,320.0,0.0,0.0
108330292.0,337.0,323.0,0.0,0.0
108331948.0,340.0,325.0,0.0,0.0
108333604.0,339.0,325.0,0.0,0.0
108335264.0,339.0,326.0,0.0,0.0
108336920.0,336.0,327.0,0.0,0.0
108338576.0,333.0,324.0,0.0,0.0
108340240.0,331.0,321.0,0.0,0.0
108341888.0,327.0,320.0,0.0,0.0
108343548.0,327.0,320.0,0.0,0.0
108345204.0,329.0,320.0,0.0,0.0
