global_time,timestamp,Outer forearm sensor value (1),Inner forearm sensor value (2),Load sensor value (3)
1694006644.424286,2040878348.0,315.0,292.0,493.0
1694006644.425387,2040880528.0,320.0,311.0,493.0
1694006644.4259434,2040882708.0,325.0,338.0,495.0
1694006644.4259434,2040884884.0,330.0,357.0,494.0
1694006644.426521,2040887068.0,333.0,362.0,492.0
1694006644.427091,2040889248.0,333.0,351.0,494.0
1694006644.427635,2040891424.0,328.0,330.0,493.0
1694006644.4281554,2040893604.0,323.0,306.0,493.0
1694006644.4281554,2040895784.0,317.0,290.0,496.0
1694006644.4286988,2040897964.0,318.0,291.0,495.0
1694006644.4292467,2040900144.0,319.0,307.0,492.0
1694006644.4292467,2040902324.0,323.0,332.0,495.0
1694006644.429798,2040904504.0,329.0,352.0,492.0
1694006644.4303126,2040906684.0,332.0,361.0,492.0
1694006644.4303398,2040908864.0,332.0,355.0,493.0
1694006644.4308655,2040911044.0,330.0,334.0,495.0
1694006644.4308655,2040913224.0,325.0,309.0,493.0
1694006644.4313858,2040915404.0,320.0,292.0,496.0
1694006644.4319477,2040917580.0,317.0,290.0,492.0
1694006644.4319477,2040919760.0,319.0,302.0,493.0
1694006644.4324837,2040921944.0,322.0,326.0,496.0
1694006644.4330127,2040924120.0,327.0,348.0,492.0
1694006644.4330127,2040926300.0,332.0,362.0,493.0
1694006644.4335427,2040928488.0,334.0,358.0,494.0
1694006644.4340997,2040930668.0,330.0,341.0,491.0
1694006644.4340997,2040932840.0,325.0,316.0,495.0
1694006644.4346187,2040935020.0,323.0,295.0,492.0
1694006644.4351406,2040937200.0,322.0,289.0,494.0
1694006644.4351406,2040939380.0,317.0,298.0,493.0
1694006644.436195,2040941556.0,318.0,320.0,492.0
1694006644.483936,2040943740.0,326.0,343.0,495.0
1694006644.4849908,2040945916.0,332.0,361.0,494.0
1694006644.4849908,2040948096.0,334.0,362.0,494.0
1694006644.485615,2040950276.0,330.0,343.0,495.0
1694006644.48616,2040952456.0,327.0,320.0,492.0
1694006644.48616,2040954636.0,323.0,299.0,492.0
1694006644.4872231,2040956816.0,320.0,290.0,496.0
1694006644.4877563,2040958996.0,314.0,294.0,496.0
1694006644.4882927,2040961176.0,320.0,313.0,492.0
1694006644.4882927,2040963356.0,322.0,339.0,491.0
1694006644.48882,2040965536.0,330.0,358.0,491.0
1694006644.4893513,2040967716.0,334.0,361.0,497.0
1694006644.4898791,2040969892.0,335.0,350.0,491.0
1694006644.4898791,2040972076.0,325.0,327.0,496.0
1694006644.4904046,2040974252.0,320.0,305.0,494.0
1694006644.4909298,2040976432.0,322.0,291.0,493.0
1694006644.4909298,2040978612.0,316.0,292.0,496.0
1694006644.491459,2040980792.0,318.0,308.0,492.0
1694006644.491986,2040982972.0,325.0,334.0,493.0
1694006644.491986,2040985152.0,329.0,352.0,496.0
1694006644.4925115,2040987332.0,334.0,362.0,492.0
1694006644.4930382,2040989512.0,331.0,354.0,494.0
1694006644.4935641,2040991692.0,329.0,333.0,494.0
1694006644.4935641,2040993872.0,324.0,309.0,492.0
1694006644.4940777,2040996052.0,319.0,293.0,494.0
1694006644.494601,2040998240.0,317.0,290.0,495.0
1694006644.494601,2041000412.0,316.0,303.0,493.0
1694006644.5471478,2041002588.0,321.0,328.0,492.0
1694006644.5476825,2041004772.0,331.0,349.0,494.0
1694006644.5487368,2041006948.0,334.0,361.0,493.0
1694006644.5487368,2041009128.0,334.0,356.0,491.0
1694006644.5492594,2041011308.0,329.0,339.0,496.0
1694006644.5497844,2041013488.0,325.0,315.0,494.0
1694006644.550307,2041015668.0,321.0,295.0,491.0
1694006644.550832,2041017848.0,316.0,289.0,494.0
1694006644.550832,2041020028.0,318.0,298.0,492.0
1694006644.5513518,2041022208.0,322.0,321.0,493.0
1694006644.5518742,2041024388.0,327.0,344.0,495.0
1694006644.5524075,2041026572.0,330.0,361.0,497.0
1694006644.5524075,2041028748.0,334.0,359.0,492.0
1694006644.5529408,2041030924.0,333.0,344.0,491.0
1694006644.553469,2041033104.0,329.0,321.0,494.0
1694006644.553469,2041035284.0,321.0,300.0,491.0
1694006644.5539904,2041037464.0,318.0,290.0,495.0
1694006644.5545163,2041039644.0,317.0,295.0,494.0
1694006644.5545163,2041041824.0,320.0,316.0,491.0
1694006644.5550377,2041044004.0,325.0,340.0,493.0
1694006644.55556,2041046184.0,331.0,356.0,494.0
1694006644.5560873,2041048364.0,331.0,358.0,492.0
1694006644.5560873,2041050544.0,334.0,349.0,496.0
1694006644.556617,2041052724.0,329.0,326.0,494.0
1694006644.5571394,2041054904.0,323.0,303.0,491.0
1694006644.5571394,2041057084.0,318.0,291.0,492.0
1694006644.5576644,2041059260.0,316.0,292.0,495.0
1694006644.5581884,2041061440.0,319.0,309.0,491.0
1694006644.5581884,2041063620.0,324.0,334.0,493.0
1694006644.6089494,2041065800.0,331.0,353.0,495.0
1694006644.6100078,2041067980.0,331.0,361.0,495.0
1694006644.6105316,2041070160.0,332.0,355.0,493.0
1694006644.6105316,2041072340.0,329.0,331.0,494.0
1694006644.611057,2041074520.0,325.0,309.0,493.0
1694006644.6115906,2041076700.0,319.0,292.0,492.0
1694006644.6121135,2041078880.0,317.0,289.0,492.0
1694006644.6121135,2041081068.0,315.0,303.0,494.0
1694006644.6126418,2041083244.0,322.0,327.0,490.0
1694006644.61317,2041085416.0,332.0,350.0,495.0
1694006644.613676,2041087596.0,330.0,361.0,494.0
1694006644.6137037,2041089776.0,332.0,356.0,494.0
1694006644.6142316,2041091956.0,329.0,339.0,493.0
1694006644.6147377,2041094136.0,325.0,315.0,491.0
1694006644.6147554,2041096316.0,323.0,296.0,491.0
1694006644.6152804,2041098496.0,318.0,291.0,495.0
1694006644.615786,2041100676.0,321.0,299.0,496.0
1694006644.6158109,2041102856.0,319.0,320.0,493.0
1694006644.6163332,2041105036.0,327.0,345.0,491.0
1694006644.6163332,2041107216.0,328.0,360.0,496.0
1694006644.616861,2041109396.0,332.0,359.0,495.0
1694006644.617387,2041111572.0,331.0,344.0,492.0
1694006644.617906,2041113756.0,327.0,319.0,492.0
1694006644.6184285,2041115936.0,322.0,300.0,492.0
1694006644.6189573,2041118112.0,320.0,289.0,492.0
1694006644.6189573,2041120292.0,317.0,295.0,491.0
1694006644.6194837,2041122472.0,319.0,315.0,493.0
1694006644.6199982,2041124652.0,325.0,340.0,495.0
1694006644.620523,2041126832.0,330.0,358.0,495.0
1694006644.670121,2041129012.0,333.0,361.0,496.0
1694006644.671184,2041131192.0,333.0,348.0,494.0
1694006644.6717224,2041133372.0,328.0,325.0,492.0
1694006644.6722326,2041135552.0,322.0,304.0,495.0
1694006644.6722724,2041137732.0,318.0,290.0,495.0
1694006644.6728046,2041139912.0,318.0,293.0,492.0
1694006644.6733406,2041142088.0,320.0,310.0,495.0
1694006644.6733406,2041144268.0,325.0,335.0,494.0
1694006644.6738744,2041146448.0,326.0,353.0,492.0
1694006644.6743987,2041148628.0,332.0,361.0,493.0
1694006644.6743987,2041150816.0,333.0,352.0,495.0
1694006644.6749284,2041152988.0,330.0,332.0,496.0
1694006644.6754537,2041155168.0,324.0,310.0,491.0
1694006644.675981,2041157348.0,318.0,291.0,495.0
1694006644.6765041,2041159528.0,317.0,290.0,492.0
1694006644.6765041,2041161708.0,319.0,304.0,495.0
1694006644.6770291,2041163888.0,322.0,328.0,493.0
1694006644.677564,2041166068.0,328.0,349.0,493.0
1694006644.677564,2041168244.0,332.0,361.0,493.0
1694006644.6780922,2041170424.0,332.0,357.0,493.0
1694006644.6786234,2041172604.0,330.0,339.0,491.0
1694006644.6791525,2041174784.0,324.0,312.0,490.0
1694006644.6791525,2041176964.0,321.0,297.0,495.0
1694006644.6796765,2041179152.0,315.0,290.0,491.0
1694006644.6802032,2041181324.0,317.0,299.0,493.0
1694006644.6802032,2041183504.0,323.0,322.0,494.0
1694006644.6807334,2041185684.0,328.0,345.0,495.0
1694006644.6812665,2041187864.0,332.0,360.0,492.0
1694006644.7338545,2041190044.0,333.0,359.0,496.0
1694006644.7343926,2041192224.0,331.0,342.0,494.0
1694006644.734918,2041194404.0,326.0,320.0,493.0
1694006644.734918,2041196580.0,321.0,298.0,493.0
1694006644.7354407,2041198760.0,319.0,289.0,494.0
1694006644.735968,2041200944.0,318.0,296.0,493.0
1694006644.737531,2041203120.0,321.0,317.0,495.0
1694006644.7380552,2041205300.0,326.0,340.0,497.0
1694006644.7385874,2041207480.0,330.0,357.0,492.0
1694006644.7385874,2041209660.0,332.0,360.0,492.0
1694006644.7391202,2041211840.0,331.0,348.0,494.0
1694006644.7396493,2041214020.0,329.0,325.0,493.0
1694006644.7401772,2041216200.0,322.0,303.0,493.0
1694006644.7407017,2041218380.0,318.0,291.0,496.0
1694006644.741208,2041220556.0,316.0,293.0,492.0
1694006644.7412233,2041222736.0,319.0,311.0,492.0
1694006644.7417486,2041224920.0,325.0,336.0,492.0
1694006644.7422748,2041227096.0,332.0,354.0,491.0
1694006644.7422748,2041229276.0,336.0,360.0,496.0
1694006644.7427986,2041231456.0,333.0,352.0,492.0
1694006644.743325,2041233644.0,327.0,330.0,492.0
1694006644.743325,2041235824.0,324.0,308.0,492.0
1694006644.7443717,2041237996.0,319.0,293.0,494.0
1694006644.7443717,2041240176.0,318.0,292.0,492.0
1694006644.7448928,2041242356.0,318.0,306.0,492.0
1694006644.7454183,2041244536.0,324.0,329.0,494.0
1694006644.7454183,2041246716.0,329.0,349.0,492.0
1694006644.7459378,2041248896.0,329.0,360.0,490.0
1694006644.7465174,2041251072.0,331.0,355.0,494.0
1694006644.7470434,2041253252.0,330.0,338.0,493.0
1694006644.797075,2041255436.0,325.0,312.0,494.0
1694006644.7976003,2041257612.0,321.0,295.0,496.0
1694006644.7981222,2041259792.0,317.0,291.0,493.0
1694006644.7986445,2041261972.0,318.0,301.0,490.0
1694006644.7986445,2041264152.0,323.0,324.0,494.0
1694006644.7991693,2041266332.0,326.0,346.0,494.0
1694006644.7996907,2041268512.0,332.0,359.0,491.0
1694006644.7996907,2041270692.0,332.0,357.0,494.0
1694006644.8002157,2041272872.0,330.0,341.0,491.0
1694006644.800745,2041275052.0,327.0,317.0,491.0
1694006644.8012793,2041277228.0,321.0,299.0,492.0
1694006644.8012793,2041279408.0,317.0,291.0,494.0
1694006644.8017998,2041281588.0,318.0,297.0,493.0
1694006644.8023245,2041283768.0,322.0,316.0,492.0
1694006644.8023245,2041285948.0,328.0,341.0,495.0
1694006644.8028426,2041288128.0,327.0,357.0,490.0
1694006644.8033652,2041290308.0,335.0,360.0,493.0
1694006644.803886,2041292488.0,331.0,346.0,494.0
1694006644.8044083,2041294668.0,326.0,323.0,491.0
1694006644.8044083,2041296848.0,324.0,303.0,493.0
1694006644.8049326,2041299028.0,319.0,291.0,492.0
1694006644.8054595,2041301208.0,316.0,294.0,493.0
1694006644.8054595,2041303392.0,320.0,311.0,493.0
1694006644.8059797,2041305564.0,325.0,336.0,493.0
1694006644.806502,2041307744.0,330.0,354.0,493.0
1694006644.806502,2041309928.0,333.0,363.0,493.0
1694006644.8070278,2041312104.0,332.0,352.0,491.0
1694006644.8076134,2041314284.0,327.0,325.0,491.0
1694006644.8076134,2041316472.0,325.0,308.0,495.0
1694006644.8608325,2041318644.0,319.0,293.0,492.0
1694006644.8613565,2041320824.0,316.0,292.0,493.0
1694006644.861882,2041323004.0,319.0,306.0,492.0
1694006644.8624127,2041325184.0,324.0,330.0,492.0
1694006644.8629346,2041327364.0,329.0,349.0,492.0
1694006644.8634531,2041329544.0,333.0,360.0,491.0
1694006644.8634531,2041331728.0,333.0,355.0,491.0
1694006644.8639762,2041333904.0,328.0,337.0,495.0
1694006644.8645024,2041336080.0,324.0,311.0,492.0
1694006644.8650355,2041338260.0,320.0,296.0,490.0
1694006644.8650355,2041340440.0,318.0,291.0,490.0
1694006644.8655593,2041342620.0,318.0,301.0,495.0
1694006644.8660827,2041344800.0,322.0,324.0,491.0
1694006644.8660827,2041346980.0,327.0,346.0,493.0
1694006644.8666055,2041349160.0,331.0,360.0,496.0
1694006644.867139,2041351340.0,332.0,357.0,492.0
1694006644.8676665,2041353520.0,330.0,341.0,492.0
1694006644.8676665,2041355700.0,326.0,317.0,494.0
1694006644.868186,2041357880.0,321.0,299.0,495.0
1694006644.8687863,2041360056.0,317.0,291.0,494.0
1694006644.8693206,2041362240.0,317.0,298.0,496.0
1694006644.8698509,2041364420.0,321.0,317.0,492.0
1694006644.8703823,2041366596.0,328.0,341.0,493.0
1694006644.8709216,2041368776.0,330.0,357.0,495.0
1694006644.8714526,2041370956.0,332.0,359.0,496.0
1694006644.8719788,2041373136.0,334.0,346.0,491.0
1694006644.8725023,2041375316.0,327.0,323.0,494.0
1694006644.8725023,2041377496.0,322.0,303.0,495.0
1694006644.873046,2041379676.0,319.0,291.0,492.0
1694006644.8741362,2041381856.0,317.0,294.0,493.0
1694006644.9205875,2041384036.0,319.0,311.0,493.0
1694006644.9211087,2041386220.0,324.0,335.0,492.0
1694006644.9216325,2041388400.0,331.0,354.0,491.0
1694006644.9221566,2041390572.0,332.0,360.0,493.0
1694006644.9221566,2041392756.0,331.0,351.0,493.0
1694006644.9226825,2041394932.0,328.0,330.0,492.0
1694006644.9232087,2041397112.0,324.0,307.0,496.0
1694006644.9232087,2041399292.0,318.0,292.0,493.0
1694006644.9237328,2041401472.0,317.0,292.0,492.0
1694006644.9242594,2041403652.0,319.0,309.0,494.0
1694006644.9247825,2041405832.0,323.0,331.0,494.0
1694006644.9247825,2041408012.0,329.0,348.0,491.0
1694006644.9253023,2041410192.0,333.0,361.0,493.0
1694006644.9258294,2041412372.0,332.0,354.0,494.0
1694006644.9263518,2041414548.0,329.0,334.0,494.0
1694006644.9263518,2041416732.0,326.0,311.0,494.0
1694006644.9268773,2041418908.0,320.0,295.0,494.0
1694006644.9273956,2041421088.0,318.0,290.0,492.0
1694006644.9279232,2041423268.0,318.0,302.0,495.0
1694006644.9279232,2041425448.0,323.0,325.0,492.0
1694006644.9284463,2041427628.0,327.0,347.0,491.0
1694006644.9289727,2041429808.0,332.0,361.0,494.0
1694006644.9295819,2041431988.0,333.0,357.0,494.0
1694006644.930105,2041434168.0,330.0,340.0,493.0
1694006644.930105,2041436348.0,326.0,316.0,492.0
1694006644.9306278,2041438528.0,321.0,298.0,491.0
1694006644.9311483,2041440708.0,318.0,291.0,491.0
1694006644.984203,2041442884.0,318.0,296.0,492.0
1694006644.9847264,2041445068.0,320.0,318.0,493.0
1694006644.985255,2041447248.0,325.0,341.0,494.0
1694006644.9857814,2041449424.0,331.0,357.0,493.0
1694006644.9857814,2041451604.0,334.0,360.0,493.0
1694006644.9863076,2041453784.0,332.0,346.0,493.0
1694006644.9868329,2041455972.0,327.0,321.0,495.0
1694006644.9868329,2041458144.0,323.0,303.0,495.0
1694006644.9873636,2041460324.0,320.0,291.0,495.0
1694006644.9878893,2041462504.0,318.0,295.0,491.0
1694006644.988418,2041464684.0,319.0,312.0,493.0
1694006644.988944,2041466864.0,325.0,337.0,491.0
1694006644.9894598,2041469048.0,331.0,354.0,491.0
1694006644.9900641,2041471224.0,329.0,358.0,496.0
1694006644.9900641,2041473404.0,332.0,351.0,498.0
1694006644.9905894,2041475584.0,328.0,329.0,490.0
1694006644.9911141,2041477760.0,323.0,306.0,496.0
1694006644.9911141,2041479944.0,320.0,292.0,493.0
1694006644.9916396,2041482120.0,317.0,293.0,492.0
1694006644.992167,2041484304.0,319.0,308.0,492.0
1694006644.992167,2041486480.0,324.0,332.0,496.0
1694006644.9926918,2041488660.0,329.0,351.0,493.0
1694006644.9932146,2041490840.0,333.0,359.0,492.0
1694006644.9932146,2041493020.0,332.0,353.0,496.0
1694006644.9937441,2041495200.0,330.0,335.0,493.0
1694006644.9942663,2041497380.0,324.0,311.0,494.0
1694006644.9947793,2041499556.0,320.0,295.0,495.0
1694006644.9947793,2041501740.0,318.0,292.0,492.0
1694006644.9953072,2041503916.0,319.0,302.0,491.0
1694006645.0474646,2041506100.0,323.0,325.0,493.0
1694006645.047989,2041508276.0,327.0,347.0,494.0
1694006645.048516,2041510456.0,331.0,360.0,492.0
1694006645.0490522,2041512636.0,333.0,357.0,492.0
1694006645.0495882,2041514816.0,330.0,340.0,491.0
1694006645.050112,2041516996.0,327.0,317.0,490.0
1694006645.050112,2041519176.0,321.0,299.0,492.0
1694006645.0506315,2041521356.0,319.0,290.0,494.0
1694006645.051225,2041523536.0,317.0,298.0,493.0
1694006645.0517328,2041525716.0,321.0,318.0,493.0
1694006645.0517633,2041527896.0,326.0,342.0,493.0
1694006645.0522892,2041530072.0,331.0,359.0,490.0
1694006645.0527947,2041532252.0,333.0,359.0,491.0
1694006645.0528135,2041534432.0,330.0,344.0,493.0
1694006645.053342,2041536612.0,325.0,320.0,491.0
1694006645.0538716,2041538796.0,323.0,302.0,492.0
1694006645.0543919,2041540976.0,319.0,291.0,492.0
1694006645.0543919,2041543152.0,318.0,295.0,491.0
1694006645.0549242,2041545332.0,322.0,313.0,492.0
1694006645.055447,2041547512.0,326.0,338.0,491.0
1694006645.0559866,2041549692.0,330.0,356.0,494.0
1694006645.0559866,2041551872.0,332.0,359.0,491.0
1694006645.0570416,2041554052.0,332.0,349.0,494.0
1694006645.057569,2041556232.0,328.0,328.0,491.0
1694006645.057569,2041558408.0,324.0,306.0,492.0
1694006645.0580971,2041560588.0,319.0,292.0,493.0
1694006645.0586252,2041562772.0,318.0,293.0,490.0
1694006645.0591488,2041564948.0,319.0,307.0,490.0
1694006645.0596743,2041567128.0,324.0,332.0,494.0
1694006645.0596743,2041569308.0,329.0,350.0,490.0
1694006645.1113808,2041571488.0,333.0,360.0,489.0
1694006645.1119037,2041573668.0,334.0,354.0,492.0
1694006645.1125667,2041575848.0,329.0,335.0,490.0
1694006645.1130757,2041578028.0,324.0,312.0,490.0
1694006645.1130981,2041580208.0,320.0,294.0,491.0
1694006645.1136327,2041582388.0,317.0,289.0,493.0
1694006645.1141617,2041584568.0,318.0,302.0,491.0
1694006645.114688,2041586748.0,323.0,326.0,493.0
1694006645.1152296,2041588924.0,328.0,349.0,495.0
1694006645.1152296,2041591104.0,331.0,361.0,490.0
1694006645.1157591,2041593284.0,332.0,358.0,492.0
1694006645.1162932,2041595464.0,330.0,338.0,487.0
1694006645.1168232,2041597644.0,326.0,315.0,490.0
1694006645.1168232,2041599824.0,321.0,298.0,494.0
1694006645.117345,2041602004.0,317.0,291.0,491.0
1694006645.1178763,2041604184.0,320.0,299.0,490.0
1694006645.1178763,2041606364.0,320.0,319.0,491.0
1694006645.1183987,2041608552.0,325.0,343.0,490.0
1694006645.1189277,2041610724.0,331.0,358.0,490.0
1694006645.1189277,2041612900.0,333.0,360.0,493.0
1694006645.1194532,2041615080.0,331.0,346.0,489.0
1694006645.119984,2041617260.0,327.0,321.0,489.0
1694006645.1205125,2041619440.0,322.0,300.0,492.0
1694006645.1205125,2041621624.0,320.0,289.0,491.0
1694006645.1210358,2041623800.0,318.0,295.0,492.0
1694006645.121555,2041625980.0,320.0,315.0,492.0
1694006645.121555,2041628160.0,325.0,338.0,494.0
1694006645.1220794,2041630340.0,329.0,356.0,493.0
1694006645.1225984,2041632520.0,334.0,361.0,491.0
1694006645.1705787,2041634700.0,333.0,349.0,491.0
1694006645.1711133,2041636880.0,326.0,327.0,491.0
1694006645.1716454,2041639060.0,323.0,305.0,491.0
1694006645.172172,2041641240.0,316.0,290.0,492.0
1694006645.1726997,2041643416.0,319.0,293.0,492.0
1694006645.1732857,2041645600.0,320.0,309.0,492.0
1694006645.1732857,2041647776.0,325.0,333.0,493.0
1694006645.1738276,2041649956.0,328.0,352.0,491.0
1694006645.174352,2041652136.0,332.0,360.0,490.0
1694006645.174352,2041654316.0,333.0,355.0,489.0
1694006645.1748843,2041656496.0,330.0,334.0,492.0
1694006645.1754048,2041658676.0,322.0,310.0,490.0
1694006645.1759317,2041660856.0,320.0,293.0,488.0
1694006645.1759317,2041663036.0,318.0,293.0,493.0
1694006645.1764593,2041665216.0,319.0,305.0,494.0
1694006645.176978,2041667392.0,320.0,325.0,491.0
1694006645.1775005,2041669576.0,328.0,347.0,492.0
1694006645.1780276,2041671752.0,333.0,361.0,489.0
1694006645.1780276,2041673932.0,332.0,356.0,489.0
1694006645.178554,2041676120.0,330.0,338.0,492.0
1694006645.1790795,2041678292.0,325.0,314.0,493.0
1694006645.1790795,2041680472.0,321.0,296.0,492.0
1694006645.1796038,2041682652.0,318.0,291.0,491.0
1694006645.1801279,2041684832.0,318.0,299.0,490.0
1694006645.1801279,2041687012.0,322.0,321.0,488.0
1694006645.1806493,2041689192.0,327.0,344.0,493.0
1694006645.181177,2041691372.0,330.0,359.0,491.0
1694006645.2348008,2041693552.0,333.0,358.0,489.0
1694006645.2358727,2041695732.0,331.0,345.0,489.0
1694006645.2363992,2041697908.0,327.0,320.0,493.0
1694006645.2363992,2041700088.0,321.0,300.0,492.0
1694006645.2369258,2041702272.0,318.0,290.0,494.0
1694006645.2374477,2041704456.0,318.0,297.0,493.0
1694006645.2374477,2041706628.0,321.0,316.0,485.0
1694006645.237975,2041708808.0,326.0,341.0,487.0
1694006645.238494,2041710988.0,330.0,355.0,489.0
1694006645.238494,2041713168.0,333.0,359.0,486.0
1694006645.2390227,2041715348.0,332.0,349.0,488.0
1694006645.2395535,2041717528.0,328.0,326.0,486.0
1694006645.2395535,2041719708.0,324.0,305.0,490.0
1694006645.2400882,2041721888.0,319.0,292.0,486.0
1694006645.240595,2041724068.0,316.0,295.0,487.0
1694006645.2406209,2041726248.0,317.0,311.0,487.0
1694006645.2411432,2041728424.0,325.0,332.0,489.0
1694006645.2411432,2041730604.0,330.0,353.0,487.0
1694006645.2416728,2041732784.0,331.0,361.0,487.0
1694006645.2421935,2041734964.0,333.0,353.0,485.0
1694006645.2421935,2041737144.0,329.0,329.0,490.0
1694006645.2427185,2041739324.0,323.0,310.0,489.0
1694006645.2432451,2041741504.0,319.0,292.0,486.0
1694006645.2438056,2041743684.0,316.0,290.0,490.0
1694006645.2443292,2041745864.0,320.0,306.0,486.0
1694006645.2443292,2041748044.0,322.0,328.0,486.0
1694006645.2448497,2041750220.0,327.0,349.0,490.0
1694006645.2453732,2041752404.0,332.0,360.0,486.0
1694006645.2453732,2041754580.0,333.0,355.0,486.0
1694006645.2458973,2041756764.0,329.0,339.0,488.0
1694006645.2959929,2041758940.0,326.0,315.0,486.0
1694006645.296672,2041761128.0,320.0,297.0,487.0
1694006645.297737,2041763300.0,318.0,291.0,487.0
1694006645.2982647,2041765480.0,319.0,300.0,491.0
1694006645.2987924,2041767660.0,321.0,322.0,486.0
1694006645.2993214,2041769840.0,326.0,344.0,491.0
1694006645.2998474,2041772020.0,331.0,360.0,487.0
1694006645.3003728,2041774200.0,334.0,359.0,486.0
1694006645.3003728,2041776380.0,330.0,343.0,490.0
1694006645.3008943,2041778560.0,326.0,319.0,488.0
1694006645.3014214,2041780736.0,322.0,300.0,489.0
1694006645.3019254,2041782916.0,317.0,290.0,488.0
1694006645.301944,2041785096.0,317.0,297.0,487.0
1694006645.3024704,2041787276.0,318.0,314.0,486.0
1694006645.3029976,2041789456.0,326.0,341.0,487.0
1694006645.3029976,2041791636.0,332.0,357.0,487.0
1694006645.3035226,2041793816.0,332.0,359.0,487.0
1694006645.3040466,2041795996.0,332.0,348.0,488.0
1694006645.3045764,2041798176.0,325.0,323.0,487.0
1694006645.3045764,2041800356.0,322.0,305.0,484.0
1694006645.3050997,2041802536.0,322.0,292.0,488.0
1694006645.3056238,2041804712.0,318.0,291.0,488.0
1694006645.3056238,2041806896.0,320.0,311.0,484.0
1694006645.3061445,2041809076.0,325.0,336.0,484.0
1694006645.3066697,2041811252.0,328.0,351.0,487.0
1694006645.3071902,2041813432.0,333.0,361.0,483.0
1694006645.3071902,2041815612.0,333.0,353.0,483.0
1694006645.3077168,2041817792.0,327.0,329.0,485.0
1694006645.358091,2041819972.0,324.0,309.0,487.0
1694006645.3586252,2041822152.0,320.0,293.0,487.0
1694006645.3591604,2041824332.0,319.0,291.0,485.0
1694006645.35968,2041826512.0,318.0,306.0,485.0
1694006645.35968,2041828700.0,321.0,328.0,487.0
1694006645.360206,2041830872.0,328.0,351.0,485.0
1694006645.360726,2041833052.0,332.0,362.0,486.0
1694006645.360726,2041835228.0,331.0,354.0,484.0
1694006645.361256,2041837412.0,331.0,339.0,487.0
1694006645.3617764,2041839588.0,325.0,314.0,483.0
1694006645.362299,2041841768.0,320.0,296.0,483.0
1694006645.3628047,2041843948.0,319.0,291.0,487.0
1694006645.3628302,2041846128.0,318.0,300.0,485.0
1694006645.3633516,2041848308.0,322.0,322.0,479.0
1694006645.3638833,2041850488.0,327.0,344.0,487.0
1694006645.3644135,2041852668.0,330.0,356.0,483.0
1694006645.3644135,2041854848.0,333.0,358.0,483.0
1694006645.3649404,2041857032.0,331.0,344.0,487.0
1694006645.365472,2041859208.0,326.0,320.0,485.0
1694006645.3659794,2041861388.0,322.0,300.0,485.0
1694006645.3659968,2041863568.0,318.0,292.0,486.0
1694006645.3665328,2041865744.0,318.0,294.0,483.0
1694006645.3670597,2041867924.0,322.0,310.0,484.0
1694006645.3670597,2041870104.0,326.0,341.0,484.0
1694006645.3675807,2041872284.0,328.0,356.0,488.0
1694006645.3681023,2041874464.0,335.0,362.0,484.0
1694006645.3681023,2041876644.0,331.0,349.0,487.0
1694006645.3686283,2041878824.0,327.0,326.0,484.0
1694006645.369151,2041881004.0,324.0,303.0,484.0
1694006645.4205294,2041883184.0,317.0,291.0,485.0
1694006645.4210517,2041885364.0,316.0,296.0,488.0
1694006645.422629,2041887544.0,321.0,312.0,484.0
1694006645.4231577,2041889724.0,325.0,332.0,484.0
1694006645.4231577,2041891900.0,329.0,354.0,483.0
1694006645.4236813,2041894080.0,331.0,360.0,488.0
1694006645.4242003,2041896260.0,330.0,352.0,487.0
1694006645.4242003,2041898440.0,331.0,330.0,488.0
1694006645.4247332,2041900620.0,324.0,308.0,484.0
1694006645.4252572,2041902800.0,320.0,293.0,485.0
1694006645.4252572,2041904980.0,318.0,294.0,484.0
1694006645.425778,2041907160.0,317.0,308.0,485.0
1694006645.4263005,2041909340.0,323.0,331.0,482.0
1694006645.4263005,2041911520.0,329.0,351.0,483.0
1694006645.426831,2041913708.0,333.0,360.0,481.0
1694006645.4273598,2041915880.0,332.0,358.0,481.0
1694006645.4273598,2041918060.0,330.0,337.0,480.0
1694006645.427883,2041920236.0,325.0,314.0,485.0
1694006645.4284093,2041922416.0,319.0,292.0,482.0
1694006645.4284093,2041924600.0,318.0,289.0,483.0
1694006645.4289331,2041926776.0,319.0,301.0,482.0
1694006645.429459,2041928956.0,322.0,322.0,482.0
1694006645.429459,2041931136.0,327.0,345.0,481.0
1694006645.4299982,2041933316.0,332.0,359.0,485.0
1694006645.430527,2041935496.0,335.0,358.0,483.0
1694006645.430527,2041937676.0,325.0,342.0,482.0
1694006645.431052,2041939856.0,328.0,314.0,486.0
1694006645.4315753,2041942036.0,319.0,297.0,484.0
1694006645.4320948,2041944216.0,320.0,295.0,481.0
1694006645.484299,2041946396.0,315.0,294.0,485.0
1694006645.4848263,2041948576.0,322.0,316.0,482.0
1694006645.48535,2041950752.0,327.0,344.0,485.0
1694006645.4858754,2041952932.0,330.0,360.0,484.0
1694006645.4864104,2041955112.0,333.0,360.0,482.0
1694006645.4864104,2041957292.0,333.0,349.0,482.0
1694006645.486937,2041959472.0,323.0,322.0,484.0
1694006645.4875038,2041961652.0,323.0,302.0,484.0
1694006645.4875038,2041963832.0,319.0,291.0,485.0
1694006645.4880266,2041966012.0,318.0,297.0,482.0
1694006645.4885578,2041968192.0,319.0,308.0,484.0
1694006645.4890883,2041970372.0,325.0,335.0,484.0
1694006645.4896152,2041972548.0,329.0,357.0,482.0
1694006645.4896152,2041974732.0,332.0,360.0,483.0
1694006645.4901378,2041976908.0,333.0,351.0,484.0
1694006645.490669,2041979088.0,328.0,329.0,483.0
1694006645.4911966,2041981276.0,323.0,307.0,482.0
1694006645.4911966,2041983448.0,320.0,290.0,484.0
1694006645.4917226,2041985628.0,317.0,290.0,481.0
1694006645.4922576,2041987808.0,318.0,306.0,486.0
1694006645.4922576,2041989988.0,323.0,330.0,487.0
1694006645.4927921,2041992168.0,331.0,353.0,484.0
1694006645.4933286,2041994348.0,332.0,361.0,486.0
1694006645.4933286,2041996528.0,332.0,353.0,485.0
1694006645.4938636,2041998708.0,330.0,338.0,484.0
1694006645.4943938,2042000888.0,323.0,315.0,484.0
1694006645.4943938,2042003068.0,323.0,297.0,484.0
1694006645.4950695,2042005244.0,315.0,289.0,480.0
1694006645.4955757,2042007428.0,319.0,299.0,480.0
1694006645.5482311,2042009612.0,324.0,327.0,480.0
1694006645.5487518,2042011784.0,327.0,346.0,480.0
1694006645.549272,2042013964.0,332.0,361.0,478.0
1694006645.5497918,2042016144.0,332.0,358.0,479.0
1694006645.5497918,2042018324.0,331.0,339.0,481.0
1694006645.5503178,2042020504.0,325.0,312.0,476.0
1694006645.5508387,2042022684.0,321.0,298.0,481.0
1694006645.5513635,2042024864.0,318.0,290.0,477.0
1694006645.5518835,2042027044.0,317.0,298.0,477.0
1694006645.5518835,2042029224.0,319.0,317.0,480.0
1694006645.5524154,2042031404.0,326.0,344.0,479.0
1694006645.5529425,2042033580.0,330.0,364.0,477.0
1694006645.5534482,2042035760.0,333.0,361.0,479.0
1694006645.553468,2042037940.0,331.0,341.0,481.0
1694006645.5539906,2042040120.0,327.0,319.0,478.0
1694006645.5539906,2042042300.0,325.0,305.0,476.0
1694006645.5545125,2042044480.0,318.0,286.0,481.0
1694006645.5550413,2042046660.0,316.0,294.0,476.0
1694006645.5550413,2042048840.0,319.0,309.0,478.0
1694006645.5555713,2042051020.0,326.0,334.0,480.0
1694006645.5562143,2042053200.0,331.0,360.0,477.0
1694006645.55674,2042055380.0,332.0,364.0,481.0
1694006645.55674,2042057560.0,333.0,350.0,480.0
1694006645.5572736,2042059736.0,329.0,328.0,479.0
1694006645.5577955,2042061916.0,323.0,304.0,477.0
1694006645.5583181,2042064104.0,320.0,294.0,480.0
1694006645.5583181,2042066284.0,318.0,295.0,478.0
1694006645.5588408,2042068456.0,319.0,309.0,476.0
1694006645.559366,2042070636.0,322.0,330.0,480.0
1694006645.559366,2042072816.0,329.0,343.0,478.0
1694006645.6076682,2042074996.0,333.0,364.0,476.0
1694006645.6081948,2042077176.0,332.0,357.0,476.0
1694006645.6087205,2042079356.0,330.0,336.0,479.0
1694006645.6092646,2042081536.0,325.0,313.0,477.0
1694006645.6097956,2042083716.0,317.0,293.0,476.0
1694006645.6097956,2042085892.0,321.0,295.0,478.0
1694006645.6103222,2042088076.0,319.0,303.0,478.0
1694006645.6108491,2042090256.0,320.0,322.0,476.0
1694006645.6108491,2042092432.0,326.0,346.0,480.0
1694006645.6113756,2042094612.0,334.0,361.0,478.0
1694006645.611904,2042096792.0,334.0,356.0,477.0
1694006645.611904,2042098972.0,332.0,342.0,481.0
1694006645.6125548,2042101152.0,324.0,315.0,477.0
1694006645.6130843,2042103332.0,321.0,296.0,477.0
1694006645.6136172,2042105512.0,318.0,288.0,458.0
1694006645.6136172,2042107692.0,319.0,300.0,460.0
1694006645.6141467,2042109872.0,321.0,317.0,459.0
1694006645.6146748,2042112052.0,327.0,346.0,461.0
1694006645.6151953,2042114232.0,333.0,363.0,459.0
1694006645.6151953,2042116408.0,330.0,358.0,458.0
1694006645.6157272,2042118592.0,334.0,343.0,461.0
1694006645.6162658,2042120768.0,323.0,320.0,462.0
1694006645.6167927,2042122948.0,321.0,300.0,458.0
1694006645.6167927,2042125128.0,318.0,284.0,461.0
1694006645.6173203,2042127308.0,319.0,295.0,460.0
1694006645.6179295,2042129488.0,319.0,314.0,459.0
1694006645.6179736,2042131668.0,325.0,340.0,460.0
1694006645.6716113,2042133856.0,330.0,355.0,461.0
1694006645.6721427,2042136028.0,333.0,360.0,460.0
1694006645.672675,2042138208.0,333.0,353.0,459.0
1694006645.6731951,2042140388.0,328.0,329.0,460.0
1694006645.6731951,2042142568.0,324.0,307.0,460.0
1694006645.6737206,2042144744.0,320.0,290.0,458.0
1694006645.674241,2042146924.0,317.0,290.0,458.0
1694006645.674241,2042149108.0,319.0,309.0,459.0
1694006645.6747653,2042151284.0,324.0,335.0,459.0
1694006645.675285,2042153464.0,327.0,350.0,459.0
1694006645.675285,2042155644.0,331.0,362.0,461.0
1694006645.6758094,2042157824.0,335.0,354.0,462.0
1694006645.6763363,2042160004.0,328.0,331.0,458.0
1694006645.6763363,2042162188.0,324.0,312.0,459.0
1694006645.6768577,2042164364.0,321.0,296.0,459.0
1694006645.67738,2042166544.0,317.0,291.0,461.0
1694006645.6779082,2042168724.0,317.0,298.0,458.0
1694006645.6784422,2042170904.0,325.0,324.0,462.0
1694006645.6790476,2042173080.0,326.0,350.0,459.0
1694006645.6795766,2042175260.0,331.0,362.0,461.0
1694006645.6795766,2042177440.0,333.0,360.0,458.0
1694006645.6801002,2042179620.0,328.0,337.0,461.0
1694006645.6806257,2042181800.0,329.0,311.0,460.0
1694006645.6816797,2042183980.0,320.0,298.0,461.0
1694006645.6816797,2042186160.0,320.0,290.0,460.0
1694006645.6822026,2042188340.0,315.0,301.0,462.0
1694006645.6827378,2042190520.0,321.0,320.0,457.0
1694006645.6832578,2042192700.0,328.0,341.0,459.0
1694006645.6832578,2042194880.0,331.0,363.0,459.0
1694006645.6837811,2042197060.0,331.0,357.0,461.0
1694006645.7355015,2042199240.0,330.0,336.0,458.0
1694006645.7360227,2042201416.0,327.0,324.0,461.0
1694006645.7365448,2042203600.0,323.0,310.0,462.0
1694006645.73707,2042205776.0,320.0,292.0,421.0
1694006645.7375746,2042207956.0,317.0,290.0,420.0
1694006645.737593,2042210136.0,321.0,312.0,425.0
1694006645.7381175,2042212316.0,325.0,334.0,422.0
1694006645.7386396,2042214496.0,328.0,354.0,421.0
1694006645.7386396,2042216684.0,333.0,363.0,425.0
1694006645.7391658,2042218864.0,334.0,349.0,421.0
1694006645.7396712,2042221036.0,328.0,327.0,419.0
1694006645.739691,2042223212.0,324.0,313.0,423.0
1694006645.740294,2042225396.0,318.0,284.0,425.0
1694006645.740294,2042227576.0,315.0,286.0,421.0
1694006645.7408261,2042229752.0,321.0,316.0,423.0
1694006645.7413483,2042231932.0,324.0,332.0,425.0
1694006645.7413483,2042234112.0,327.0,347.0,422.0
1694006645.7418773,2042236292.0,333.0,361.0,425.0
1694006645.742402,2042238472.0,338.0,355.0,422.0
1694006645.742402,2042240652.0,325.0,347.0,422.0
1694006645.7429278,2042242832.0,324.0,315.0,421.0
1694006645.7434585,2042245012.0,320.0,287.0,425.0
1694006645.743982,2042247192.0,316.0,283.0,420.0
1694006645.7445178,2042249372.0,318.0,295.0,421.0
1694006645.7450466,2042251552.0,323.0,329.0,424.0
1694006645.7450466,2042253728.0,328.0,348.0,425.0
1694006645.7455745,2042255912.0,332.0,360.0,421.0
1694006645.746099,2042258088.0,335.0,362.0,424.0
1694006645.746632,2042260268.0,332.0,341.0,423.0
1694006645.7953591,2042262448.0,323.0,312.0,423.0
1694006645.7959015,2042264628.0,323.0,303.0,424.0
1694006645.7964156,2042266808.0,314.0,290.0,425.0
1694006645.7964156,2042268988.0,318.0,299.0,421.0
1694006645.7969368,2042271168.0,323.0,315.0,424.0
1694006645.7974641,2042273348.0,327.0,345.0,421.0
1694006645.7974641,2042275528.0,332.0,365.0,422.0
1694006645.7979877,2042277708.0,332.0,358.0,422.0
1694006645.7985168,2042279888.0,330.0,341.0,425.0
1694006645.7985168,2042282068.0,329.0,321.0,422.0
1694006645.799039,2042284248.0,319.0,302.0,421.0
1694006645.7995667,2042286432.0,318.0,288.0,420.0
1694006645.8000953,2042288604.0,315.0,294.0,425.0
1694006645.8000953,2042290784.0,322.0,314.0,422.0
1694006645.8006182,2042292964.0,323.0,338.0,423.0
1694006645.801137,2042295144.0,330.0,360.0,422.0
1694006645.801137,2042297324.0,334.0,360.0,424.0
1694006645.8017685,2042299512.0,333.0,349.0,421.0
1694006645.8022935,2042301684.0,329.0,326.0,425.0
1694006645.802818,2042303864.0,322.0,312.0,422.0
1694006645.802818,2042306044.0,318.0,292.0,391.0
1694006645.803338,2042308224.0,317.0,289.0,390.0
1694006645.8038628,2042310404.0,320.0,301.0,388.0
1694006645.8038628,2042312584.0,323.0,328.0,388.0
1694006645.804383,2042314768.0,329.0,356.0,389.0
1694006645.804911,2042316940.0,330.0,361.0,388.0
1694006645.804911,2042319120.0,333.0,357.0,390.0
1694006645.805432,2042321300.0,330.0,333.0,390.0
1694006645.859549,2042323480.0,328.0,313.0,388.0
1694006645.8605824,2042325660.0,317.0,292.0,387.0
1694006645.8606172,2042327840.0,316.0,291.0,391.0
1694006645.8611405,2042330020.0,319.0,303.0,391.0
1694006645.8616629,2042332200.0,323.0,325.0,388.0
1694006645.8621862,2042334380.0,331.0,356.0,390.0
1694006645.862785,2042336560.0,332.0,363.0,390.0
1694006645.862785,2042338736.0,330.0,350.0,389.0
1694006645.863321,2042340920.0,330.0,343.0,390.0
1694006645.8638604,2042343096.0,326.0,312.0,388.0
1694006645.864389,2042345276.0,321.0,292.0,387.0
1694006645.864389,2042347456.0,319.0,292.0,390.0
1694006645.8649166,2042349636.0,319.0,303.0,390.0
1694006645.8654373,2042351816.0,321.0,322.0,388.0
1694006645.8654373,2042353996.0,327.0,346.0,389.0
1694006645.8659625,2042356176.0,332.0,364.0,391.0
1694006645.8664832,2042358356.0,326.0,363.0,388.0
1694006645.8670075,2042360536.0,332.0,343.0,389.0
1694006645.8675268,2042362716.0,326.0,316.0,389.0
1694006645.8680315,2042364896.0,320.0,290.0,390.0
1694006645.8680496,2042367076.0,318.0,294.0,389.0
1694006645.8685782,2042369260.0,318.0,293.0,389.0
1694006645.8690832,2042371440.0,320.0,317.0,391.0
1694006645.869102,2042373612.0,326.0,341.0,387.0
1694006645.869623,2042375792.0,331.0,358.0,389.0
1694006645.8701434,2042377972.0,333.0,360.0,390.0
1694006645.8701434,2042380152.0,330.0,343.0,388.0
1694006645.8706725,2042382332.0,329.0,326.0,391.0
1694006645.8711917,2042384512.0,323.0,303.0,391.0
1694006645.871716,2042386692.0,318.0,288.0,388.0
1694006645.9232674,2042388872.0,320.0,303.0,390.0
1694006645.9239516,2042391052.0,319.0,309.0,390.0
1694006645.9244843,2042393228.0,324.0,336.0,389.0
1694006645.9250195,2042395412.0,329.0,347.0,389.0
1694006645.925532,2042397588.0,330.0,357.0,390.0
1694006645.925532,2042399768.0,332.0,354.0,388.0
1694006645.926082,2042401948.0,329.0,334.0,389.0
1694006645.926619,2042404128.0,325.0,310.0,371.0
1694006645.9271498,2042406308.0,320.0,291.0,369.0
1694006645.927679,2042408488.0,317.0,289.0,368.0
1694006645.927679,2042410668.0,317.0,305.0,369.0
1694006645.9282088,2042412848.0,324.0,328.0,368.0
1694006645.9287364,2042415028.0,330.0,353.0,367.0
1694006645.9287364,2042417208.0,331.0,364.0,370.0
1694006645.9292626,2042419388.0,334.0,352.0,369.0
1694006645.9297884,2042421568.0,330.0,344.0,369.0
1694006645.9297884,2042423748.0,324.0,309.0,369.0
1694006645.9303155,2042425924.0,321.0,297.0,370.0
1694006645.9308429,2042428104.0,313.0,289.0,369.0
1694006645.9308429,2042430284.0,316.0,294.0,371.0
1694006645.9313731,2042432464.0,324.0,327.0,371.0
1694006645.931896,2042434644.0,327.0,350.0,367.0
1694006645.932426,2042436824.0,330.0,357.0,369.0
1694006645.932426,2042439012.0,330.0,350.0,369.0
1694006645.9329503,2042441184.0,333.0,347.0,370.0
1694006645.9334838,2042443364.0,327.0,315.0,371.0
1694006645.934016,2042445544.0,322.0,306.0,370.0
1694006645.934016,2042447724.0,318.0,293.0,371.0
1694006645.9345481,2042449900.0,317.0,292.0,368.0
1694006645.9836092,2042452088.0,321.0,318.0,370.0
1694006645.9841392,2042454264.0,325.0,341.0,371.0
1694006645.984667,2042456440.0,334.0,354.0,369.0
1694006645.9852889,2042458620.0,334.0,363.0,368.0
1694006645.9852889,2042460800.0,329.0,349.0,369.0
1694006645.9858153,2042462980.0,326.0,323.0,369.0
1694006645.9863415,2042465160.0,322.0,303.0,368.0
1694006645.9868755,2042467344.0,319.0,291.0,369.0
1694006645.9868755,2042469520.0,316.0,292.0,369.0
1694006645.9873986,2042471700.0,322.0,301.0,368.0
1694006645.987932,2042473880.0,325.0,338.0,370.0
1694006645.988462,2042476060.0,330.0,356.0,370.0
1694006645.9889863,2042478240.0,332.0,365.0,371.0
1694006645.9895024,2042480416.0,334.0,355.0,368.0
1694006645.9895535,2042482596.0,329.0,327.0,368.0
1694006645.990084,2042484776.0,324.0,306.0,369.0
1694006645.990084,2042486956.0,321.0,297.0,370.0
1694006645.9906073,2042489136.0,315.0,286.0,368.0
1694006645.991132,2042491316.0,319.0,306.0,370.0
1694006645.9916363,2042493496.0,324.0,334.0,369.0
1694006645.9916556,2042495676.0,328.0,347.0,368.0
1694006645.9921765,2042497856.0,331.0,358.0,369.0
1694006645.9921765,2042500036.0,333.0,357.0,368.0
1694006645.9926999,2042502216.0,329.0,339.0,370.0
1694006645.9932761,2042504396.0,325.0,312.0,349.0
1694006645.9932761,2042506572.0,322.0,299.0,351.0
1694006645.9938033,2042508756.0,318.0,289.0,350.0
1694006645.9943318,2042510936.0,318.0,296.0,349.0
1694006646.0468779,2042513112.0,323.0,326.0,349.0
1694006646.0474122,2042515292.0,330.0,347.0,352.0
1694006646.0479412,2042517472.0,331.0,360.0,352.0
1694006646.0484715,2042519652.0,333.0,362.0,351.0
1694006646.048993,2042521836.0,330.0,338.0,351.0
1694006646.048993,2042524016.0,326.0,316.0,349.0
1694006646.0495193,2042526192.0,320.0,298.0,350.0
1694006646.0500386,2042528372.0,318.0,291.0,352.0
1694006646.0500386,2042530552.0,319.0,299.0,351.0
1694006646.050562,2042532728.0,320.0,316.0,349.0
1694006646.0510917,2042534908.0,325.0,340.0,351.0
1694006646.0510917,2042537092.0,333.0,356.0,351.0
1694006646.0516188,2042539272.0,332.0,360.0,349.0
1694006646.052192,2042541448.0,332.0,347.0,351.0
1694006646.052192,2042543628.0,328.0,324.0,351.0
1694006646.0527296,2042545808.0,323.0,305.0,351.0
1694006646.053265,2042547988.0,316.0,292.0,351.0
1694006646.053265,2042550168.0,318.0,293.0,348.0
1694006646.0537915,2042552348.0,325.0,310.0,350.0
1694006646.0543158,2042554528.0,327.0,337.0,352.0
1694006646.0548384,2042556708.0,329.0,352.0,349.0
1694006646.0553696,2042558888.0,330.0,362.0,348.0
1694006646.0558918,2042561064.0,326.0,355.0,351.0
1694006646.0564222,2042563248.0,339.0,332.0,350.0
1694006646.0564222,2042565424.0,314.0,307.0,350.0
1694006646.0569484,2042567604.0,319.0,293.0,350.0
1694006646.0574758,2042569784.0,318.0,291.0,351.0
1694006646.0574758,2042571964.0,321.0,304.0,351.0
1694006646.058005,2042574144.0,324.0,329.0,350.0
1694006646.1080627,2042576324.0,328.0,350.0,350.0
1694006646.109133,2042578504.0,333.0,363.0,351.0
1694006646.1101835,2042580684.0,336.0,355.0,350.0
1694006646.1101835,2042582864.0,332.0,338.0,349.0
1694006646.1107125,2042585044.0,317.0,308.0,350.0
1694006646.111225,2042587224.0,320.0,297.0,349.0
1694006646.111225,2042589400.0,317.0,290.0,348.0
1694006646.111746,2042591592.0,324.0,301.0,349.0
1694006646.112271,2042593760.0,323.0,323.0,349.0
1694006646.112271,2042595940.0,323.0,347.0,351.0
1694006646.1127956,2042598120.0,331.0,360.0,349.0
1694006646.113323,2042600300.0,334.0,357.0,351.0
1694006646.113323,2042602480.0,336.0,342.0,350.0
1694006646.1138465,2042604664.0,318.0,317.0,338.0
1694006646.1143699,2042606840.0,327.0,298.0,338.0
1694006646.1143699,2042609020.0,314.0,291.0,337.0
1694006646.1148891,2042611200.0,325.0,297.0,338.0
1694006646.1154118,2042613380.0,304.0,318.0,340.0
1694006646.1154118,2042615560.0,327.0,339.0,339.0
1694006646.1159432,2042617740.0,332.0,358.0,339.0
1694006646.116471,2042619920.0,329.0,361.0,338.0
1694006646.116471,2042622096.0,331.0,346.0,338.0
1694006646.1169934,2042624276.0,332.0,323.0,340.0
1694006646.117517,2042626456.0,324.0,303.0,338.0
1694006646.1180346,2042628636.0,326.0,289.0,337.0
1694006646.1180346,2042630816.0,306.0,294.0,339.0
1694006646.1185653,2042632996.0,316.0,312.0,339.0
1694006646.1190934,2042635176.0,328.0,337.0,339.0
1694006646.1699383,2042637356.0,329.0,356.0,340.0
1694006646.1704617,2042639536.0,331.0,361.0,338.0
1694006646.1709874,2042641716.0,336.0,351.0,338.0
1694006646.1715155,2042643896.0,328.0,330.0,340.0
1694006646.1720386,2042646076.0,317.0,311.0,338.0
1694006646.1720386,2042648252.0,319.0,291.0,338.0
1694006646.1725657,2042650432.0,320.0,290.0,338.0
1694006646.1730862,2042652612.0,325.0,303.0,339.0
1694006646.1730862,2042654792.0,319.0,329.0,338.0
1694006646.1736076,2042656972.0,333.0,351.0,340.0
1694006646.1741347,2042659152.0,330.0,360.0,338.0
1694006646.1746612,2042661332.0,325.0,356.0,338.0
1694006646.175196,2042663512.0,341.0,336.0,340.0
1694006646.175196,2042665692.0,317.0,314.0,339.0
1694006646.175728,2042667872.0,319.0,295.0,337.0
1694006646.1762576,2042670052.0,317.0,289.0,341.0
1694006646.1762576,2042672232.0,299.0,302.0,339.0
1694006646.1767795,2042674412.0,335.0,323.0,338.0
1694006646.1773021,2042676592.0,337.0,346.0,340.0
1694006646.177808,2042678772.0,333.0,361.0,340.0
1694006646.1778255,2042680948.0,339.0,358.0,339.0
1694006646.1783493,2042683128.0,326.0,342.0,339.0
1694006646.178856,2042685308.0,323.0,318.0,339.0
1694006646.1788766,2042687496.0,326.0,298.0,338.0
1694006646.1794007,2042689668.0,316.0,290.0,339.0
1694006646.1799285,2042691848.0,334.0,297.0,338.0
1694006646.1799285,2042694028.0,306.0,317.0,336.0
1694006646.1804495,2042696208.0,325.0,341.0,340.0
1694006646.1809719,2042698388.0,334.0,358.0,338.0
1694006646.2339275,2042700568.0,337.0,360.0,337.0
1694006646.234455,2042702744.0,333.0,347.0,340.0
1694006646.2349794,2042704924.0,312.0,323.0,342.0
1694006646.2349794,2042707104.0,335.0,303.0,339.0
1694006646.235502,2042709288.0,324.0,291.0,342.0
1694006646.2360306,2042711464.0,300.0,295.0,342.0
1694006646.2365487,2042713644.0,322.0,312.0,342.0
1694006646.2365487,2042715824.0,345.0,338.0,341.0
1694006646.2370813,2042718004.0,320.0,356.0,342.0
1694006646.2376034,2042720184.0,345.0,360.0,340.0
1694006646.238133,2042722364.0,338.0,350.0,341.0
1694006646.2386575,2042724544.0,322.0,328.0,343.0
1694006646.2386575,2042726724.0,325.0,306.0,340.0
1694006646.239172,2042728900.0,310.0,291.0,341.0
1694006646.239716,2042731084.0,315.0,290.0,344.0
1694006646.2402387,2042733264.0,315.0,306.0,340.0
1694006646.2402387,2042735440.0,330.0,332.0,342.0
1694006646.2407627,2042737620.0,334.0,353.0,343.0
1694006646.2412918,2042739800.0,328.0,361.0,343.0
1694006646.2418125,2042741980.0,340.0,354.0,341.0
1694006646.2423425,2042744168.0,334.0,335.0,342.0
1694006646.242867,2042746340.0,323.0,309.0,339.0
1694006646.242867,2042748520.0,311.0,295.0,341.0
1694006646.2433913,2042750700.0,317.0,290.0,342.0
1694006646.2439122,2042752880.0,320.0,302.0,341.0
1694006646.2439122,2042755056.0,326.0,327.0,341.0
1694006646.2444358,2042757240.0,310.0,350.0,343.0
1694006646.2449641,2042759420.0,342.0,359.0,340.0
1694006646.2449641,2042761596.0,354.0,356.0,342.0
1694006646.2973797,2042763776.0,335.0,339.0,343.0
1694006646.2978985,2042765956.0,310.0,312.0,342.0
1694006646.298423,2042768136.0,338.0,296.0,341.0
1694006646.298423,2042770316.0,299.0,291.0,343.0
1694006646.2989514,2042772496.0,305.0,301.0,341.0
1694006646.2994807,2042774676.0,310.0,322.0,342.0
1694006646.2999935,2042776856.0,323.0,342.0,343.0
1694006646.2999935,2042779036.0,355.0,357.0,341.0
1694006646.300516,2042781216.0,298.0,358.0,340.0
1694006646.3010392,2042783396.0,330.0,344.0,341.0
1694006646.3020854,2042785576.0,362.0,321.0,340.0
1694006646.3026154,2042787752.0,304.0,301.0,341.0
1694006646.3026154,2042789932.0,321.0,292.0,341.0
1694006646.3031368,2042792112.0,317.0,295.0,341.0
1694006646.3036606,2042794292.0,335.0,311.0,343.0
1694006646.3036606,2042796472.0,318.0,337.0,342.0
1694006646.304185,2042798652.0,321.0,357.0,339.0
1694006646.3047104,2042800832.0,335.0,363.0,343.0
1694006646.3047104,2042803012.0,309.0,352.0,372.0
1694006646.3052335,2042805192.0,352.0,326.0,373.0
1694006646.3057392,2042807372.0,334.0,304.0,374.0
1694006646.305906,2042809552.0,321.0,290.0,373.0
1694006646.3064334,2042811740.0,348.0,294.0,371.0
1694006646.3069594,2042813908.0,284.0,308.0,374.0
1694006646.3069594,2042816088.0,266.0,331.0,372.0
1694006646.3074906,2042818268.0,329.0,350.0,373.0
1694006646.3080237,2042820448.0,349.0,361.0,374.0
1694006646.308551,2042822628.0,341.0,356.0,372.0
1694006646.308551,2042824808.0,351.0,335.0,371.0
1694006646.360971,2042826988.0,307.0,310.0,375.0
1694006646.361498,2042829168.0,328.0,293.0,372.0
1694006646.3620284,2042831348.0,283.0,291.0,373.0
1694006646.3625503,2042833528.0,346.0,303.0,375.0
1694006646.3625503,2042835708.0,336.0,327.0,371.0
1694006646.3630779,2042837888.0,290.0,346.0,372.0
1694006646.3636012,2042840072.0,319.0,360.0,373.0
1694006646.3641067,2042842248.0,354.0,358.0,372.0
1694006646.3641207,2042844428.0,330.0,341.0,371.0
1694006646.3646414,2042846604.0,336.0,314.0,375.0
1694006646.3651474,2042848784.0,273.0,297.0,373.0
1694006646.3652086,2042850964.0,331.0,291.0,373.0
1694006646.365738,2042853144.0,354.0,298.0,375.0
1694006646.365738,2042855324.0,300.0,317.0,373.0
1694006646.3662694,2042857504.0,306.0,343.0,372.0
1694006646.36695,2042859684.0,341.0,359.0,373.0
1694006646.36695,2042861864.0,340.0,360.0,373.0
1694006646.367485,2042864044.0,342.0,345.0,373.0
1694006646.3680086,2042866224.0,328.0,320.0,373.0
1694006646.3685153,2042868404.0,304.0,300.0,374.0
1694006646.3685353,2042870584.0,350.0,289.0,371.0
1694006646.3690605,2042872760.0,316.0,291.0,374.0
1694006646.369585,2042874940.0,289.0,315.0,373.0
1694006646.369585,2042877120.0,314.0,339.0,375.0
1694006646.370115,2042879300.0,347.0,357.0,374.0
1694006646.3706439,2042881480.0,335.0,363.0,372.0
1694006646.3706439,2042883660.0,377.0,352.0,375.0
1694006646.371173,2042885840.0,297.0,328.0,373.0
1694006646.3716965,2042888020.0,323.0,305.0,375.0
1694006646.3716965,2042890200.0,333.0,293.0,374.0
1694006646.4209013,2042892380.0,329.0,288.0,373.0
1694006646.4214222,2042894560.0,319.0,310.0,372.0
1694006646.421935,2042896748.0,330.0,335.0,372.0
1694006646.4224613,2042898920.0,318.0,355.0,373.0
1694006646.4229813,2042901096.0,334.0,363.0,373.0
1694006646.4235146,2042903280.0,322.0,350.0,441.0
1694006646.4240513,2042905456.0,349.0,330.0,442.0
1694006646.4240513,2042907636.0,321.0,303.0,438.0
1694006646.4245775,2042909816.0,308.0,292.0,436.0
1694006646.4251032,2042911996.0,321.0,291.0,438.0
1694006646.425627,2042914176.0,332.0,305.0,436.0
1694006646.4261522,2042916356.0,361.0,331.0,440.0
1694006646.4261522,2042918536.0,321.0,348.0,439.0
1694006646.4266756,2042920716.0,283.0,364.0,439.0
1694006646.427201,2042922892.0,322.0,362.0,439.0
1694006646.427201,2042925076.0,321.0,331.0,439.0
1694006646.4279413,2042927256.0,363.0,309.0,436.0
1694006646.4284687,2042929432.0,336.0,297.0,440.0
1694006646.4290023,2042931612.0,274.0,293.0,440.0
1694006646.429538,2042933792.0,318.0,301.0,437.0
1694006646.430075,2042935972.0,315.0,318.0,440.0
1694006646.4306064,2042938152.0,326.0,346.0,439.0
1694006646.4306064,2042940332.0,345.0,359.0,437.0
1694006646.4311304,2042942512.0,358.0,360.0,437.0
1694006646.4316514,2042944692.0,325.0,341.0,441.0
1694006646.4316514,2042946872.0,310.0,320.0,437.0
1694006646.432167,2042949052.0,294.0,300.0,440.0
1694006646.4326804,2042951228.0,294.0,290.0,440.0
1694006646.484864,2042953412.0,307.0,296.0,438.0
1694006646.4853935,2042955588.0,331.0,316.0,436.0
1694006646.4859142,2042957768.0,330.0,342.0,437.0
1694006646.4864414,2042959948.0,318.0,356.0,438.0
1694006646.486953,2042962128.0,359.0,360.0,438.0
1694006646.486953,2042964316.0,360.0,347.0,438.0
1694006646.4874766,2042966488.0,311.0,326.0,436.0
1694006646.4880009,2042968668.0,315.0,305.0,436.0
1694006646.4885287,2042970848.0,340.0,290.0,437.0
1694006646.4885287,2042973028.0,314.0,292.0,438.0
1694006646.4892244,2042975208.0,305.0,309.0,436.0
1694006646.4897587,2042977388.0,346.0,336.0,436.0
1694006646.4902828,2042979568.0,326.0,352.0,437.0
1694006646.4902828,2042981744.0,355.0,362.0,440.0
1694006646.4908028,2042983924.0,345.0,354.0,436.0
1694006646.4913259,2042986104.0,335.0,335.0,438.0
1694006646.4913259,2042988284.0,302.0,310.0,437.0
1694006646.4918482,2042990464.0,302.0,291.0,436.0
1694006646.4923735,2042992652.0,252.0,292.0,439.0
1694006646.4928956,2042994824.0,330.0,305.0,436.0
1694006646.4928956,2042997004.0,348.0,330.0,437.0
1694006646.4934263,2042999184.0,303.0,347.0,438.0
1694006646.4939504,2043001364.0,373.0,361.0,438.0
1694006646.4939504,2043003544.0,349.0,357.0,504.0
1694006646.4944956,2043005724.0,267.0,336.0,506.0
1694006646.495019,2043007904.0,327.0,311.0,506.0
1694006646.4955425,2043010084.0,271.0,295.0,506.0
1694006646.4955425,2043012264.0,364.0,291.0,505.0
1694006646.4960675,2043014440.0,320.0,299.0,507.0
1694006646.548675,2043016620.0,341.0,319.0,503.0
1694006646.5492015,2043018800.0,275.0,346.0,505.0
1694006646.5497267,2043020980.0,320.0,357.0,504.0
1694006646.5497267,2043023160.0,354.0,360.0,509.0
1694006646.550333,2043025340.0,349.0,346.0,506.0
1694006646.550862,2043027520.0,324.0,320.0,507.0
1694006646.550862,2043029700.0,333.0,301.0,505.0
1694006646.5513873,2043031880.0,318.0,289.0,504.0
1694006646.5519097,2043034060.0,327.0,299.0,508.0
1694006646.5524154,2043036236.0,318.0,318.0,506.0
1694006646.55296,2043038416.0,311.0,343.0,504.0
1694006646.5534873,2043040596.0,307.0,358.0,507.0
1694006646.5540133,2043042776.0,342.0,358.0,506.0
1694006646.5540133,2043044956.0,339.0,341.0,509.0
1694006646.5545325,2043047144.0,313.0,319.0,506.0
1694006646.555055,2043049324.0,314.0,301.0,506.0
1694006646.555055,2043051496.0,335.0,293.0,504.0
1694006646.555577,2043053676.0,316.0,296.0,507.0
1694006646.5561025,2043055856.0,316.0,309.0,506.0
1694006646.5566263,2043058036.0,367.0,336.0,507.0
1694006646.5566263,2043060216.0,350.0,352.0,507.0
1694006646.5571475,2043062396.0,341.0,362.0,506.0
1694006646.557672,2043064572.0,352.0,354.0,504.0
1694006646.558192,2043066752.0,298.0,332.0,504.0
1694006646.558192,2043068932.0,337.0,308.0,505.0
1694006646.5587192,2043071112.0,275.0,290.0,506.0
1694006646.5592427,2043073292.0,282.0,291.0,504.0
1694006646.5597742,2043075472.0,308.0,304.0,504.0
1694006646.5597742,2043077652.0,319.0,328.0,508.0
1694006646.5602999,2043079832.0,345.0,350.0,504.0
1694006646.608705,2043082012.0,360.0,364.0,505.0
1694006646.6097553,2043084192.0,318.0,359.0,505.0
1694006646.6102846,2043086372.0,340.0,336.0,504.0
1694006646.6108172,2043088552.0,326.0,314.0,504.0
1694006646.6108172,2043090728.0,307.0,296.0,505.0
1694006646.611456,2043092912.0,277.0,290.0,504.0
1694006646.612006,2043095088.0,363.0,302.0,504.0
1694006646.612006,2043097268.0,296.0,321.0,507.0
1694006646.612547,2043099452.0,278.0,341.0,507.0
1694006646.6130767,2043101628.0,341.0,361.0,502.0
1694006646.6136045,2043103808.0,354.0,358.0,549.0
1694006646.6136045,2043105988.0,305.0,341.0,548.0
1694006646.6141353,2043108168.0,317.0,319.0,548.0
1694006646.6146612,2043110348.0,329.0,299.0,548.0
1694006646.6146612,2043112528.0,332.0,289.0,549.0
1694006646.6152053,2043114708.0,288.0,296.0,545.0
1694006646.6157317,2043116896.0,357.0,320.0,550.0
1694006646.6157317,2043119068.0,328.0,337.0,552.0
1694006646.616269,2043121244.0,308.0,359.0,547.0
1694006646.616803,2043123424.0,322.0,358.0,549.0
1694006646.6173418,2043125604.0,325.0,348.0,548.0
1694006646.6173418,2043127784.0,285.0,325.0,546.0
1694006646.6178694,2043129964.0,337.0,303.0,551.0
1694006646.6183934,2043132144.0,335.0,293.0,550.0
1694006646.6189265,2043134324.0,316.0,293.0,545.0
1694006646.6189265,2043136504.0,324.0,309.0,546.0
1694006646.6195185,2043138684.0,359.0,337.0,552.0
1694006646.672371,2043140864.0,312.0,355.0,548.0
1694006646.672906,2043143044.0,352.0,360.0,547.0
1694006646.6734374,2043145228.0,237.0,352.0,550.0
1694006646.6739662,2043147400.0,332.0,333.0,549.0
1694006646.6745167,2043149584.0,317.0,308.0,548.0
1694006646.6745167,2043151760.0,371.0,291.0,548.0
1694006646.67504,2043153940.0,327.0,289.0,548.0
1694006646.6755707,2043156120.0,263.0,301.0,550.0
1694006646.6755707,2043158300.0,347.0,330.0,547.0
1694006646.6760979,2043160480.0,348.0,347.0,547.0
1694006646.6766207,2043162660.0,324.0,357.0,547.0
1694006646.6766207,2043164840.0,330.0,357.0,551.0
1694006646.6771405,2043167020.0,327.0,340.0,544.0
1694006646.6776748,2043169200.0,325.0,314.0,549.0
1694006646.6776748,2043171380.0,304.0,299.0,549.0
1694006646.678198,2043173560.0,334.0,292.0,548.0
1694006646.6787245,2043175740.0,339.0,300.0,548.0
1694006646.6792521,2043177916.0,299.0,322.0,550.0
1694006646.6792521,2043180096.0,313.0,344.0,547.0
1694006646.6797802,2043182276.0,315.0,358.0,553.0
1694006646.680305,2043184456.0,352.0,359.0,548.0
1694006646.6808395,2043186636.0,332.0,345.0,546.0
1694006646.6808395,2043188816.0,330.0,313.0,549.0
1694006646.6813602,2043190996.0,316.0,298.0,548.0
1694006646.6818833,2043193176.0,363.0,292.0,547.0
1694006646.6818833,2043195356.0,295.0,298.0,551.0
1694006646.6823995,2043197536.0,316.0,319.0,547.0
1694006646.6829348,2043199724.0,350.0,340.0,547.0
1694006646.683462,2043201904.0,208.0,356.0,574.0
1694006646.683462,2043204072.0,362.0,359.0,573.0
1694006646.7333796,2043206256.0,349.0,346.0,571.0
1694006646.7340105,2043208432.0,355.0,327.0,575.0
1694006646.7345707,2043210612.0,305.0,304.0,576.0
1694006646.7350802,2043212792.0,298.0,289.0,576.0
1694006646.735103,2043214972.0,357.0,294.0,574.0
1694006646.7356436,2043217152.0,355.0,313.0,574.0
1694006646.7356436,2043219332.0,307.0,336.0,573.0
1694006646.7361755,2043221512.0,307.0,349.0,575.0
1694006646.7367077,2043223692.0,323.0,354.0,575.0
1694006646.7372155,2043225872.0,326.0,351.0,575.0
1694006646.7372386,2043228048.0,333.0,334.0,576.0
1694006646.7377675,2043230232.0,341.0,308.0,573.0
1694006646.7382958,2043232408.0,294.0,293.0,574.0
1694006646.7388268,2043234588.0,345.0,297.0,575.0
1694006646.7388268,2043236768.0,289.0,303.0,578.0
1694006646.7393565,2043238948.0,340.0,332.0,573.0
1694006646.7398865,2043241128.0,326.0,347.0,574.0
1694006646.7404196,2043243308.0,326.0,358.0,578.0
1694006646.7404196,2043245488.0,323.0,355.0,574.0
1694006646.7409558,2043247668.0,349.0,339.0,577.0
1694006646.7414799,2043249848.0,339.0,314.0,574.0
1694006646.7414799,2043252028.0,304.0,298.0,572.0
1694006646.7420053,2043254208.0,331.0,291.0,573.0
1694006646.7425325,2043256384.0,340.0,299.0,577.0
1694006646.7425325,2043258568.0,283.0,324.0,574.0
1694006646.7430582,2043260744.0,298.0,345.0,574.0
1694006646.7435875,2043262924.0,355.0,358.0,577.0
1694006646.7441175,2043265104.0,350.0,357.0,573.0
1694006646.7952373,2043267284.0,312.0,342.0,575.0
1694006646.7957718,2043269472.0,340.0,318.0,577.0
1694006646.7963135,2043271644.0,309.0,299.0,575.0
1694006646.7968383,2043273824.0,342.0,291.0,573.0
1694006646.7973654,2043276004.0,326.0,302.0,577.0
1694006646.7973654,2043278184.0,326.0,316.0,573.0
1694006646.797885,2043280364.0,363.0,343.0,577.0
1694006646.79841,2043282552.0,289.0,355.0,578.0
1694006646.79841,2043284724.0,321.0,355.0,577.0
1694006646.798935,2043286904.0,336.0,347.0,572.0
1694006646.7994604,2043289080.0,342.0,323.0,574.0
1694006646.7994604,2043291260.0,331.0,305.0,576.0
1694006646.7999806,2043293440.0,331.0,292.0,575.0
1694006646.8005054,2043295620.0,289.0,295.0,574.0
1694006646.801025,2043297808.0,282.0,312.0,577.0
1694006646.801025,2043299980.0,349.0,338.0,579.0
1694006646.8015492,2043302160.0,376.0,355.0,596.0
1694006646.8020756,2043304340.0,353.0,362.0,593.0
1694006646.8020756,2043306520.0,318.0,352.0,592.0
1694006646.8026078,2043308700.0,350.0,329.0,592.0
1694006646.8031383,2043310880.0,302.0,305.0,598.0
1694006646.8036451,2043313056.0,304.0,292.0,596.0
1694006646.8036637,2043315240.0,310.0,294.0,594.0
1694006646.8041887,2043317416.0,326.0,308.0,596.0
1694006646.804717,2043319600.0,349.0,332.0,594.0
1694006646.804717,2043321776.0,310.0,352.0,593.0
1694006646.8052392,2043323956.0,322.0,358.0,596.0
1694006646.8057694,2043326136.0,331.0,353.0,596.0
1694006646.8578453,2043328316.0,344.0,332.0,592.0
1694006646.8583953,2043330496.0,318.0,310.0,596.0
1694006646.8589103,2043332676.0,323.0,294.0,596.0
1694006646.8594155,2043334856.0,340.0,294.0,591.0
1694006646.8599539,2043337036.0,275.0,306.0,596.0
1694006646.8604593,2043339216.0,323.0,325.0,596.0
1694006646.8604772,2043341392.0,346.0,344.0,592.0
1694006646.8610048,2043343576.0,344.0,359.0,595.0
1694006646.861525,2043345756.0,346.0,357.0,597.0
1694006646.8620296,2043347932.0,321.0,342.0,594.0
1694006646.8620481,2043350112.0,298.0,320.0,598.0
1694006646.8625824,2043352300.0,323.0,300.0,597.0
1694006646.8630888,2043354480.0,323.0,291.0,592.0
1694006646.8631237,2043356652.0,345.0,295.0,593.0
1694006646.8636541,2043358832.0,315.0,319.0,592.0
1694006646.8641846,2043361012.0,309.0,344.0,596.0
1694006646.8641846,2043363192.0,323.0,355.0,596.0
1694006646.8647132,2043365372.0,342.0,355.0,598.0
1694006646.8652377,2043367552.0,371.0,342.0,596.0
1694006646.8652377,2043369732.0,286.0,317.0,589.0
1694006646.8657641,2043371912.0,312.0,302.0,596.0
1694006646.8662882,2043374092.0,320.0,295.0,596.0
1694006646.8667955,2043376268.0,324.0,298.0,593.0
1694006646.866817,2043378448.0,328.0,316.0,597.0
1694006646.867352,2043380628.0,342.0,341.0,592.0
1694006646.8678794,2043382808.0,275.0,357.0,592.0
1694006646.8684027,2043384988.0,340.0,358.0,593.0
1694006646.8684027,2043387168.0,339.0,349.0,591.0
1694006646.868929,2043389348.0,328.0,327.0,597.0
1694006646.8694477,2043391528.0,324.0,306.0,596.0
1694006646.9216297,2043393708.0,333.0,291.0,592.0
1694006646.9221597,2043395888.0,321.0,293.0,593.0
1694006646.9226973,2043398064.0,301.0,303.0,592.0
1694006646.9232533,2043400244.0,322.0,332.0,593.0
1694006646.9232533,2043402424.0,327.0,353.0,602.0
1694006646.9237907,2043404604.0,336.0,361.0,604.0
1694006646.9243395,2043406784.0,329.0,354.0,608.0
1694006646.9243395,2043408964.0,341.0,335.0,604.0
1694006646.9248948,2043411144.0,333.0,311.0,607.0
1694006646.9254398,2043413324.0,320.0,296.0,603.0
1694006646.9254398,2043415504.0,307.0,287.0,604.0
1694006646.926001,2043417684.0,327.0,305.0,604.0
1694006646.9265187,2043419864.0,313.0,327.0,607.0
1694006646.9265187,2043422052.0,332.0,348.0,603.0
1694006646.927044,2043424224.0,318.0,359.0,605.0
1694006646.9276001,2043426404.0,327.0,357.0,607.0
1694006646.9276001,2043428580.0,337.0,339.0,602.0
1694006646.9281435,2043430764.0,370.0,313.0,606.0
1694006646.9281435,2043432940.0,310.0,297.0,607.0
1694006646.9286835,2043435128.0,316.0,292.0,604.0
1694006646.929201,2043437300.0,321.0,298.0,605.0
1694006646.929201,2043439480.0,311.0,320.0,604.0
1694006646.9297378,2043441660.0,320.0,343.0,607.0
1694006646.9302914,2043443840.0,339.0,361.0,602.0
1694006646.9302914,2043446020.0,327.0,358.0,605.0
1694006646.9308183,2043448200.0,329.0,346.0,602.0
1694006646.9313414,2043450384.0,327.0,320.0,605.0
1694006646.9318926,2043452560.0,321.0,299.0,607.0
1694006646.9318926,2043454736.0,323.0,287.0,607.0
1694006646.9860828,2043456920.0,318.0,299.0,603.0
1694006646.9866147,2043459096.0,306.0,313.0,605.0
1694006646.987149,2043461276.0,338.0,341.0,603.0
1694006646.987671,2043463456.0,327.0,355.0,603.0
1694006646.987671,2043465636.0,322.0,364.0,604.0
1694006646.988182,2043467816.0,324.0,356.0,602.0
1694006646.9887044,2043469996.0,342.0,321.0,602.0
1694006646.9892404,2043472176.0,338.0,300.0,604.0
1694006646.9892404,2043474356.0,315.0,289.0,607.0
1694006646.989791,2043476536.0,315.0,298.0,603.0
1694006646.9903429,2043478716.0,328.0,310.0,605.0
1694006646.990857,2043480896.0,317.0,334.0,602.0
1694006646.9908981,2043483072.0,330.0,354.0,604.0
1694006646.991438,2043485252.0,349.0,354.0,605.0
1694006646.991958,2043487432.0,340.0,354.0,605.0
1694006646.991958,2043489612.0,327.0,337.0,607.0
1694006646.9924803,2043491792.0,320.0,306.0,604.0
1694006646.9930046,2043493972.0,313.0,293.0,602.0
1694006646.9930046,2043496152.0,303.0,290.0,604.0
1694006646.9935277,2043498332.0,318.0,303.0,607.0
1694006646.994144,2043500512.0,315.0,328.0,602.0
1694006646.9946647,2043502692.0,323.0,353.0,607.0
1694006646.9946647,2043504876.0,332.0,362.0,606.0
1694006646.9952035,2043507056.0,332.0,356.0,612.0
1694006646.995717,2043509232.0,328.0,336.0,605.0
1694006646.9957933,2043511412.0,317.0,315.0,604.0
1694006646.9963667,2043513592.0,322.0,298.0,605.0
1694006646.9969049,2043515768.0,322.0,291.0,607.0
1694006646.9974465,2043517948.0,325.0,299.0,611.0
1694006646.9974465,2043520128.0,323.0,319.0,606.0
1694006647.0457475,2043522308.0,328.0,343.0,605.0
1694006647.046275,2043524488.0,328.0,362.0,608.0
1694006647.0468009,2043526668.0,328.0,354.0,609.0
1694006647.0473268,2043528848.0,334.0,346.0,609.0
1694006647.0473268,2043531028.0,324.0,323.0,608.0
1694006647.0478454,2043533208.0,317.0,295.0,607.0
1694006647.0483723,2043535388.0,319.0,297.0,604.0
1694006647.0483723,2043537568.0,318.0,300.0,606.0
1694006647.0488958,2043539744.0,320.0,307.0,608.0
1694006647.0494194,2043541924.0,327.0,338.0,606.0
1694006647.0499613,2043544104.0,334.0,357.0,608.0
1694006647.0504909,2043546284.0,333.0,355.0,608.0
1694006647.0504909,2043548464.0,334.0,347.0,608.0
1694006647.051024,2043550644.0,325.0,330.0,606.0
1694006647.0515509,2043552824.0,322.0,304.0,610.0
1694006647.0515597,2043555004.0,322.0,291.0,605.0
1694006647.0525026,2043557184.0,320.0,300.0,609.0
1694006647.053012,2043559364.0,316.0,306.0,607.0
1694006647.0540223,2043561540.0,323.0,335.0,607.0
1694006647.0550225,2043563724.0,334.0,359.0,607.0
1694006647.0560226,2043565904.0,330.0,359.0,610.0
1694006647.0572207,2043568084.0,330.0,349.0,606.0
1694006647.0582817,2043570260.0,335.0,332.0,605.0
1694006647.0588186,2043572440.0,329.0,315.0,611.0
1694006647.0593567,2043574628.0,319.0,293.0,607.0
1694006647.0593567,2043576800.0,303.0,286.0,605.0
1694006647.059888,2043578980.0,322.0,298.0,608.0
1694006647.1104548,2043581160.0,324.0,331.0,610.0
1694006647.110986,2043583340.0,327.0,349.0,605.0
1694006647.1115143,2043585520.0,333.0,364.0,610.0
1694006647.1115143,2043587704.0,333.0,357.0,608.0
1694006647.1120405,2043589880.0,332.0,335.0,607.0
1694006647.1125667,2043592060.0,326.0,311.0,605.0
1694006647.113091,2043594236.0,323.0,297.0,606.0
1694006647.1136148,2043596416.0,317.0,293.0,606.0
1694006647.1136148,2043598596.0,320.0,316.0,605.0
1694006647.1141398,2043600776.0,320.0,334.0,590.0
1694006647.114666,2043602960.0,327.0,329.0,593.0
1694006647.114666,2043605136.0,334.0,345.0,589.0
1694006647.1151898,2043607316.0,326.0,349.0,592.0
1694006647.1157181,2043609496.0,331.0,340.0,591.0
1694006647.1162481,2043611676.0,328.0,322.0,587.0
1694006647.1162481,2043613856.0,321.0,307.0,592.0
1694006647.1168432,2043616036.0,320.0,290.0,594.0
1694006647.1173697,2043618216.0,312.0,290.0,589.0
1694006647.117889,2043620396.0,323.0,312.0,591.0
1694006647.118411,2043622572.0,327.0,345.0,589.0
1694006647.1189585,2043624752.0,328.0,365.0,588.0
1694006647.1189585,2043626932.0,326.0,369.0,590.0
1694006647.1194859,2043629112.0,326.0,341.0,590.0
1694006647.1200051,2043631292.0,334.0,318.0,590.0
1694006647.1205344,2043633472.0,323.0,300.0,590.0
1694006647.1205344,2043635652.0,322.0,292.0,592.0
1694006647.1210594,2043637832.0,318.0,297.0,589.0
1694006647.1215837,2043640012.0,322.0,312.0,586.0
1694006647.1221077,2043642192.0,328.0,335.0,594.0
1694006647.1221077,2043644372.0,329.0,353.0,591.0
1694006647.17378,2043646552.0,332.0,363.0,590.0
1694006647.1743028,2043648732.0,330.0,351.0,594.0
1694006647.174828,2043650908.0,332.0,333.0,588.0
1694006647.1753514,2043653088.0,327.0,305.0,587.0
1694006647.1753514,2043655272.0,319.0,293.0,593.0
1694006647.1758738,2043657452.0,320.0,296.0,588.0
1694006647.1764064,2043659632.0,324.0,306.0,588.0
1694006647.1769233,2043661808.0,322.0,328.0,589.0
1694006647.1769233,2043663988.0,327.0,345.0,590.0
1694006647.1774457,2043666168.0,323.0,357.0,587.0
1694006647.1779716,2043668348.0,336.0,360.0,592.0
1694006647.1779952,2043670536.0,328.0,332.0,591.0
1694006647.178642,2043672708.0,321.0,312.0,589.0
1694006647.178642,2043674888.0,320.0,295.0,593.0
1694006647.179171,2043677064.0,320.0,292.0,588.0
1694006647.1796823,2043679244.0,320.0,300.0,588.0
1694006647.1802065,2043681424.0,323.0,324.0,595.0
1694006647.1802065,2043683604.0,327.0,351.0,592.0
1694006647.180793,2043685784.0,331.0,358.0,588.0
1694006647.1813433,2043687964.0,333.0,358.0,594.0
1694006647.1813433,2043690144.0,332.0,337.0,587.0
1694006647.1818964,2043692324.0,327.0,315.0,587.0
1694006647.1824033,2043694504.0,321.0,304.0,593.0
1694006647.1824145,2043696684.0,311.0,297.0,589.0
1694006647.18294,2043698864.0,314.0,302.0,588.0
1694006647.1834564,2043701044.0,326.0,314.0,513.0
1694006647.1834886,2043703220.0,322.0,329.0,515.0
1694006647.1840415,2043705404.0,331.0,358.0,513.0
1694006647.1845858,2043707580.0,337.0,363.0,513.0
1694006647.2334692,2043709760.0,329.0,347.0,518.0
1694006647.234535,2043711940.0,333.0,325.0,515.0
1694006647.2356045,2043714120.0,322.0,303.0,514.0
1694006647.2361364,2043716300.0,319.0,292.0,516.0
1694006647.2371938,2043718480.0,319.0,292.0,514.0
1694006647.237726,2043720660.0,320.0,314.0,514.0
1694006647.2382574,2043722840.0,324.0,336.0,510.0
1694006647.238786,2043725020.0,330.0,352.0,514.0
1694006647.2394185,2043727208.0,333.0,363.0,518.0
1694006647.2399466,2043729380.0,330.0,345.0,517.0
1694006647.2404666,2043731560.0,333.0,347.0,517.0
1694006647.2404666,2043733740.0,325.0,308.0,516.0
1694006647.2409961,2043735920.0,321.0,280.0,517.0
1694006647.2415211,2043738096.0,313.0,274.0,517.0
1694006647.2415211,2043740280.0,315.0,310.0,514.0
1694006647.242045,2043742456.0,329.0,337.0,518.0
1694006647.242566,2043744636.0,327.0,345.0,514.0
1694006647.243087,2043746816.0,332.0,362.0,516.0
1694006647.243087,2043748996.0,333.0,356.0,518.0
1694006647.2436116,2043751176.0,335.0,338.0,515.0
1694006647.2441325,2043753356.0,324.0,307.0,515.0
1694006647.2441325,2043755536.0,316.0,298.0,517.0
1694006647.2446604,2043757716.0,312.0,298.0,513.0
1694006647.2451825,2043759896.0,320.0,303.0,517.0
1694006647.2451825,2043762076.0,326.0,323.0,515.0
1694006647.245704,2043764252.0,333.0,340.0,517.0
1694006647.2462249,2043766432.0,325.0,362.0,513.0
1694006647.2462249,2043768612.0,330.0,363.0,513.0
1694006647.2973018,2043770792.0,332.0,336.0,512.0
1694006647.2978265,2043772972.0,328.0,316.0,514.0
1694006647.2983527,2043775152.0,323.0,300.0,513.0
1694006647.298875,2043777332.0,319.0,295.0,516.0
1694006647.2994022,2043779512.0,317.0,285.0,518.0
1694006647.2999249,2043781692.0,328.0,324.0,513.0
1694006647.300445,2043783872.0,320.0,338.0,513.0
1694006647.3010414,2043786052.0,333.0,362.0,517.0
1694006647.3010414,2043788232.0,332.0,360.0,514.0
1694006647.301575,2043790408.0,334.0,349.0,513.0
1694006647.3021116,2043792592.0,326.0,318.0,511.0
1694006647.3026183,2043794776.0,323.0,298.0,514.0
1694006647.30316,2043796948.0,324.0,294.0,512.0
1694006647.3036826,2043799128.0,312.0,293.0,516.0
1694006647.3042166,2043801308.0,318.0,315.0,416.0
1694006647.3047593,2043803488.0,325.0,337.0,414.0
1694006647.3052826,2043805668.0,327.0,354.0,415.0
1694006647.3058062,2043807848.0,332.0,361.0,414.0
1694006647.306327,2043810028.0,333.0,356.0,413.0
1694006647.3068502,2043812208.0,328.0,333.0,415.0
1694006647.3073723,2043814388.0,327.0,310.0,414.0
1694006647.3078926,2043816568.0,319.0,297.0,415.0
1694006647.3078926,2043818744.0,315.0,288.0,416.0
1694006647.3084176,2043820924.0,321.0,300.0,414.0
1694006647.3089406,2043823112.0,332.0,339.0,414.0
1694006647.3094673,2043825284.0,324.0,352.0,417.0
1694006647.3099916,2043827464.0,334.0,356.0,414.0
1694006647.3099916,2043829644.0,324.0,346.0,416.0
1694006647.3105152,2043831824.0,319.0,332.0,417.0
1694006647.3110373,2043834004.0,328.0,316.0,414.0
1694006647.3613658,2043836184.0,320.0,296.0,416.0
1694006647.361891,2043838364.0,319.0,292.0,418.0
1694006647.3625164,2043840544.0,320.0,305.0,415.0
1694006647.3630226,2043842724.0,326.0,326.0,414.0
1694006647.3630455,2043844904.0,328.0,348.0,416.0
1694006647.3635707,2043847080.0,333.0,369.0,417.0
1694006647.3640928,2043849260.0,326.0,347.0,415.0
1694006647.364612,2043851440.0,333.0,336.0,417.0
1694006647.3651187,2043853620.0,328.0,319.0,418.0
1694006647.3651357,2043855800.0,323.0,297.0,415.0
1694006647.3656628,2043857980.0,318.0,292.0,417.0
1694006647.3661838,2043860160.0,317.0,295.0,413.0
1694006647.3661838,2043862340.0,323.0,323.0,416.0
1694006647.3667076,2043864520.0,326.0,346.0,416.0
1694006647.367229,2043866700.0,329.0,354.0,414.0
1694006647.3677547,2043868880.0,333.0,357.0,414.0
1694006647.3682804,2043871060.0,334.0,346.0,416.0
1694006647.368801,2043873240.0,331.0,322.0,414.0
1694006647.368801,2043875416.0,318.0,301.0,417.0
1694006647.3693259,2043877596.0,317.0,292.0,414.0
1694006647.3698509,2043879788.0,317.0,296.0,416.0
1694006647.37038,2043881956.0,323.0,315.0,415.0
1694006647.37038,2043884136.0,327.0,341.0,416.0
1694006647.3709133,2043886316.0,325.0,347.0,414.0
1694006647.3714514,2043888496.0,336.0,361.0,415.0
1694006647.3719802,2043890676.0,334.0,356.0,416.0
1694006647.3719802,2043892856.0,325.0,327.0,415.0
1694006647.372513,2043895036.0,317.0,304.0,416.0
1694006647.373042,2043897216.0,321.0,290.0,414.0
1694006647.4210355,2043899396.0,322.0,302.0,417.0
1694006647.4215603,2043901576.0,313.0,307.0,352.0
1694006647.422085,2043903756.0,323.0,330.0,350.0
1694006647.422612,2043905932.0,331.0,350.0,349.0
1694006647.4231339,2043908112.0,333.0,362.0,352.0
1694006647.4236598,2043910292.0,336.0,349.0,350.0
1694006647.4241662,2043912472.0,327.0,331.0,350.0
1694006647.4242404,2043914652.0,324.0,319.0,351.0
1694006647.4247675,2043916832.0,318.0,297.0,350.0
1694006647.4252906,2043919012.0,317.0,284.0,350.0
1694006647.4252906,2043921192.0,317.0,305.0,352.0
1694006647.425815,2043923372.0,323.0,329.0,349.0
1694006647.4263394,2043925552.0,329.0,348.0,351.0
1694006647.4268653,2043927732.0,334.0,363.0,351.0
1694006647.4268653,2043929912.0,333.0,360.0,350.0
1694006647.4273906,2043932092.0,324.0,333.0,350.0
1694006647.4279132,2043934268.0,325.0,320.0,350.0
1694006647.4279132,2043936448.0,322.0,287.0,349.0
1694006647.428436,2043938628.0,320.0,299.0,350.0
1694006647.4289587,2043940808.0,318.0,301.0,351.0
1694006647.4289587,2043942988.0,322.0,319.0,349.0
1694006647.429485,2043945168.0,329.0,346.0,351.0
1694006647.4300053,2043947356.0,333.0,361.0,349.0
1694006647.4300053,2043949528.0,334.0,360.0,349.0
1694006647.4305308,2043951708.0,332.0,344.0,348.0
1694006647.4310498,2043953888.0,326.0,317.0,351.0
1694006647.431578,2043956064.0,311.0,302.0,351.0
1694006647.431578,2043958244.0,329.0,291.0,348.0
1694006647.4854126,2043960424.0,306.0,295.0,350.0
1694006647.4865558,2043962608.0,324.0,311.0,350.0
1694006647.4871795,2043964784.0,330.0,338.0,349.0
1694006647.487685,2043966964.0,323.0,357.0,352.0
1694006647.4877253,2043969144.0,332.0,355.0,351.0
1694006647.4882832,2043971324.0,331.0,351.0,349.0
1694006647.4888167,2043973504.0,326.0,333.0,351.0
1694006647.4893434,2043975688.0,325.0,304.0,350.0
1694006647.4898741,2043977864.0,323.0,286.0,350.0
1694006647.4898741,2043980044.0,321.0,297.0,351.0
1694006647.4904022,2043982224.0,315.0,313.0,349.0
1694006647.4909298,2043984404.0,323.0,332.0,349.0
1694006647.4914632,2043986580.0,327.0,350.0,351.0
1694006647.4914632,2043988764.0,331.0,352.0,350.0
1694006647.4919953,2043990940.0,332.0,354.0,350.0
1694006647.492526,2043993120.0,331.0,335.0,352.0
1694006647.492526,2043995300.0,326.0,312.0,350.0
1694006647.4930503,2043997480.0,305.0,295.0,349.0
1694006647.4935815,2043999660.0,343.0,296.0,319.0
1694006647.4941149,2044001840.0,311.0,303.0,316.0
1694006647.4946232,2044004020.0,321.0,327.0,317.0
1694006647.494658,2044006200.0,328.0,346.0,319.0
1694006647.495184,2044008380.0,337.0,355.0,319.0
1694006647.495712,2044010560.0,327.0,354.0,316.0
1694006647.4962358,2044012740.0,340.0,338.0,318.0
1694006647.4967403,2044014916.0,322.0,318.0,317.0
1694006647.4967568,2044017096.0,314.0,299.0,317.0
1694006647.4972804,2044019276.0,326.0,291.0,317.0
1694006647.497786,2044021456.0,314.0,301.0,316.0
1694006647.5461905,2044023636.0,325.0,320.0,317.0
1694006647.546823,2044025816.0,336.0,345.0,317.0
1694006647.547357,2044027996.0,317.0,362.0,317.0
1694006647.5478806,2044030184.0,339.0,357.0,316.0
1694006647.5478806,2044032364.0,334.0,342.0,318.0
1694006647.5484064,2044034536.0,319.0,319.0,318.0
1694006647.548931,2044036712.0,312.0,298.0,317.0
1694006647.5494585,2044038892.0,318.0,291.0,317.0
1694006647.549965,2044041076.0,319.0,296.0,316.0
1694006647.549986,2044043256.0,318.0,314.0,316.0
1694006647.5505154,2044045436.0,318.0,337.0,320.0
1694006647.551039,2044047612.0,336.0,354.0,318.0
1694006647.551039,2044049792.0,334.0,358.0,319.0
1694006647.5515654,2044051972.0,335.0,350.0,317.0
1694006647.5520847,2044054152.0,328.0,328.0,318.0
1694006647.552609,2044056332.0,310.0,305.0,317.0
1694006647.5531147,2044058512.0,320.0,289.0,318.0
1694006647.5531318,2044060692.0,327.0,295.0,316.0
1694006647.5536504,2044062872.0,321.0,309.0,317.0
1694006647.5541713,2044065052.0,323.0,331.0,316.0
1694006647.5541713,2044067232.0,329.0,364.0,318.0
1694006647.5546925,2044069408.0,341.0,357.0,317.0
1694006647.555218,2044071592.0,313.0,347.0,317.0
1694006647.5557415,2044073768.0,328.0,326.0,317.0
1694006647.5557415,2044075948.0,324.0,308.0,319.0
1694006647.5562694,2044078128.0,321.0,296.0,317.0
1694006647.5567906,2044080308.0,328.0,292.0,318.0
1694006647.5573146,2044082488.0,313.0,305.0,317.0
1694006647.5573146,2044084668.0,333.0,329.0,316.0
1694006647.608033,2044086848.0,315.0,350.0,315.0
1694006647.6085696,2044089028.0,335.0,361.0,317.0
1694006647.6091018,2044091208.0,337.0,356.0,318.0
1694006647.609623,2044093388.0,314.0,337.0,319.0
1694006647.610142,2044095568.0,327.0,317.0,319.0
1694006647.610142,2044097744.0,324.0,294.0,316.0
1694006647.6106682,2044099936.0,326.0,291.0,311.0
1694006647.6111917,2044102108.0,298.0,301.0,311.0
1694006647.6111917,2044104284.0,323.0,321.0,310.0
1694006647.6117153,2044106464.0,337.0,344.0,309.0
1694006647.6122339,2044108644.0,323.0,359.0,309.0
1694006647.61276,2044110824.0,338.0,358.0,313.0
1694006647.613266,2044113004.0,328.0,345.0,312.0
1694006647.6132839,2044115184.0,322.0,320.0,309.0
1694006647.6138036,2044117364.0,310.0,298.0,310.0
1694006647.614326,2044119544.0,330.0,289.0,310.0
1694006647.6148474,2044121720.0,318.0,297.0,312.0
1694006647.6148474,2044123904.0,312.0,315.0,312.0
1694006647.615874,2044126080.0,330.0,341.0,310.0
1694006647.6158934,2044128268.0,348.0,358.0,311.0
1694006647.616418,2044130440.0,350.0,360.0,311.0
1694006647.6169384,2044132620.0,327.0,348.0,311.0
1694006647.6174598,2044134800.0,312.0,326.0,311.0
1694006647.6174598,2044136980.0,319.0,304.0,311.0
1694006647.6179867,2044139160.0,341.0,294.0,311.0
1694006647.6185026,2044141340.0,316.0,296.0,311.0
1694006647.6190326,2044143520.0,268.0,310.0,312.0
1694006647.6195478,2044145700.0,356.0,334.0,311.0
1694006647.6705582,2044147880.0,331.0,351.0,311.0
1694006647.6710806,2044150060.0,353.0,362.0,310.0
1694006647.6716092,2044152240.0,311.0,349.0,309.0
1694006647.6721332,2044154416.0,370.0,326.0,310.0
1694006647.6726537,2044156596.0,336.0,303.0,311.0
1694006647.6726537,2044158776.0,285.0,292.0,310.0
1694006647.67318,2044160956.0,305.0,294.0,309.0
1694006647.6737096,2044163136.0,297.0,306.0,310.0
1694006647.6737096,2044165316.0,387.0,331.0,312.0
1694006647.6742287,2044167496.0,309.0,353.0,311.0
1694006647.67475,2044169676.0,345.0,356.0,311.0
1694006647.67475,2044171856.0,303.0,356.0,311.0
1694006647.6752768,2044174036.0,337.0,339.0,309.0
1694006647.6757946,2044176216.0,341.0,311.0,311.0
1694006647.676317,2044178396.0,337.0,295.0,311.0
1694006647.676317,2044180572.0,300.0,288.0,312.0
1694006647.676839,2044182760.0,319.0,301.0,311.0
1694006647.6773734,2044184940.0,311.0,319.0,310.0
1694006647.6778908,2044187112.0,339.0,345.0,311.0
1694006647.6778908,2044189292.0,335.0,361.0,309.0
1694006647.6784177,2044191472.0,339.0,358.0,311.0
1694006647.6789422,2044193652.0,339.0,345.0,311.0
1694006647.6794665,2044195832.0,271.0,319.0,310.0
1694006647.6799877,2044198012.0,338.0,300.0,312.0
1694006647.6799877,2044200192.0,340.0,290.0,321.0
1694006647.6805108,2044202372.0,305.0,294.0,321.0
1694006647.6810334,2044204548.0,301.0,320.0,321.0
1694006647.6815588,2044206732.0,341.0,344.0,323.0
1694006647.6820767,2044208908.0,348.0,354.0,322.0
1694006647.7342489,2044211088.0,289.0,358.0,321.0
1694006647.7352886,2044213268.0,300.0,347.0,323.0
1694006647.7358134,2044215448.0,374.0,324.0,322.0
1694006647.736334,2044217628.0,354.0,305.0,321.0
1694006647.736853,2044219808.0,325.0,291.0,323.0
1694006647.737383,2044221988.0,344.0,293.0,322.0
1694006647.7379007,2044224168.0,242.0,312.0,321.0
1694006647.7379007,2044226348.0,341.0,332.0,321.0
1694006647.7384193,2044228528.0,350.0,357.0,321.0
1694006647.738945,2044230708.0,328.0,362.0,321.0
1694006647.7394972,2044232888.0,328.0,352.0,322.0
1694006647.740016,2044235068.0,343.0,329.0,321.0
1694006647.740016,2044237248.0,326.0,309.0,321.0
1694006647.7405436,2044239424.0,334.0,295.0,323.0
1694006647.7411048,2044241604.0,334.0,289.0,323.0
1694006647.741618,2044243784.0,324.0,301.0,320.0
1694006647.741631,2044245964.0,274.0,327.0,323.0
1694006647.7421522,2044248144.0,391.0,350.0,322.0
1694006647.7426753,2044250324.0,350.0,359.0,321.0
1694006647.7432091,2044252512.0,330.0,357.0,321.0
1694006647.743748,2044254684.0,307.0,341.0,322.0
1694006647.743748,2044256864.0,330.0,313.0,321.0
1694006647.744285,2044259044.0,309.0,299.0,322.0
1694006647.744804,2044261224.0,297.0,292.0,324.0
1694006647.744804,2044263404.0,322.0,300.0,323.0
1694006647.7453284,2044265580.0,334.0,323.0,324.0
1694006647.7458606,2044267760.0,348.0,341.0,323.0
1694006647.7465239,2044269940.0,339.0,353.0,322.0
1694006647.7465239,2044272120.0,328.0,355.0,322.0
1694006647.7978954,2044274300.0,299.0,345.0,322.0
1694006647.7984254,2044276480.0,338.0,322.0,323.0
1694006647.7989538,2044278660.0,335.0,305.0,323.0
1694006647.7994852,2044280848.0,310.0,294.0,322.0
1694006647.7994852,2044283020.0,291.0,294.0,320.0
1694006647.800011,2044285200.0,304.0,313.0,323.0
1694006647.800534,2044287380.0,350.0,337.0,320.0
1694006647.800534,2044289560.0,359.0,354.0,321.0
1694006647.8010604,2044291740.0,295.0,360.0,321.0
1694006647.8015811,2044293916.0,320.0,349.0,323.0
1694006647.8020856,2044296096.0,352.0,324.0,323.0
1694006647.802107,2044298276.0,336.0,305.0,322.0
1694006647.8026297,2044300456.0,316.0,294.0,364.0
1694006647.803157,2044302636.0,304.0,295.0,361.0
1694006647.8036778,2044304816.0,333.0,308.0,362.0
1694006647.8036778,2044306996.0,288.0,334.0,363.0
1694006647.804199,2044309176.0,338.0,355.0,360.0
1694006647.8047235,2044311356.0,354.0,362.0,362.0
1694006647.8047235,2044313536.0,302.0,353.0,363.0
1694006647.8052497,2044315716.0,343.0,332.0,364.0
1694006647.805777,2044317896.0,349.0,308.0,362.0
1694006647.8063025,2044320076.0,294.0,293.0,362.0
1694006647.8063025,2044322252.0,289.0,290.0,361.0
1694006647.8068888,2044324432.0,330.0,305.0,362.0
1694006647.8074148,2044326612.0,338.0,330.0,363.0
1694006647.8074148,2044328792.0,309.0,352.0,362.0
1694006647.8079429,2044330972.0,344.0,359.0,362.0
1694006647.8084695,2044333152.0,400.0,348.0,363.0
1694006647.8089943,2044335340.0,296.0,331.0,361.0
1694006647.8614833,2044337520.0,318.0,309.0,363.0
1694006647.8620157,2044339692.0,325.0,297.0,363.0
1694006647.8625386,2044341872.0,321.0,295.0,361.0
1694006647.8630664,2044344052.0,317.0,305.0,362.0
1694006647.863593,2044346228.0,323.0,329.0,363.0
1694006647.864122,2044348412.0,334.0,346.0,361.0
1694006647.8646517,2044350592.0,382.0,360.0,365.0
1694006647.8651788,2044352768.0,299.0,357.0,362.0
1694006647.8651788,2044354948.0,367.0,345.0,362.0
1694006647.8657138,2044357128.0,313.0,315.0,363.0
1694006647.8662415,2044359308.0,271.0,297.0,363.0
1694006647.8667638,2044361488.0,346.0,288.0,359.0
1694006647.8667638,2044363668.0,363.0,297.0,363.0
1694006647.8672826,2044365848.0,304.0,320.0,361.0
1694006647.8679109,2044368028.0,386.0,345.0,365.0
1694006647.868437,2044370208.0,315.0,360.0,362.0
1694006647.868437,2044372388.0,322.0,360.0,363.0
1694006647.86896,2044374568.0,338.0,343.0,360.0
1694006647.8694859,2044376748.0,300.0,320.0,365.0
1694006647.8694859,2044378924.0,339.0,299.0,361.0
1694006647.8700109,2044381104.0,331.0,295.0,363.0
1694006647.8705313,2044383284.0,288.0,290.0,364.0
1694006647.8710613,2044385464.0,319.0,312.0,361.0
1694006647.8710613,2044387644.0,339.0,337.0,361.0
1694006647.8715818,2044389824.0,330.0,352.0,365.0
1694006647.8721027,2044392004.0,288.0,360.0,362.0
1694006647.8726084,2044394184.0,387.0,353.0,363.0
1694006647.8726268,2044396364.0,266.0,329.0,364.0
1694006647.8731558,2044398544.0,314.0,306.0,457.0
1694006647.8736634,2044400724.0,350.0,291.0,456.0
1694006647.9214375,2044402904.0,298.0,295.0,458.0
1694006647.9219675,2044405088.0,372.0,308.0,456.0
1694006647.9224908,2044407260.0,266.0,334.0,456.0
1694006647.9230254,2044409440.0,339.0,350.0,458.0
1694006647.9230254,2044411620.0,327.0,361.0,459.0
1694006647.923548,2044413800.0,347.0,351.0,454.0
1694006647.9240746,2044415980.0,345.0,331.0,456.0
1694006647.924592,2044418168.0,331.0,312.0,460.0
1694006647.924592,2044420340.0,304.0,296.0,455.0
1694006647.9251194,2044422520.0,307.0,292.0,460.0
1694006647.9256513,2044424700.0,318.0,305.0,459.0
1694006647.9256513,2044426880.0,290.0,328.0,458.0
1694006647.9261842,2044429060.0,353.0,346.0,458.0
1694006647.9267223,2044431240.0,363.0,357.0,457.0
1694006647.9267223,2044433424.0,328.0,357.0,457.0
1694006647.9272497,2044435596.0,337.0,343.0,458.0
1694006647.927783,2044437776.0,290.0,318.0,457.0
1694006647.9283066,2044439956.0,353.0,297.0,457.0
1694006647.9283066,2044442136.0,310.0,299.0,456.0
1694006647.9288292,2044444316.0,332.0,306.0,456.0
1694006647.9294674,2044446496.0,303.0,317.0,455.0
1694006647.929992,2044448676.0,322.0,342.0,457.0
1694006647.9305358,2044450856.0,368.0,355.0,456.0
1694006647.9305358,2044453036.0,299.0,352.0,457.0
1694006647.931117,2044455216.0,346.0,333.0,459.0
1694006647.9316406,2044457396.0,328.0,316.0,459.0
1694006647.9321976,2044459576.0,333.0,293.0,455.0
1694006647.9854794,2044461752.0,326.0,289.0,458.0
1694006647.9860106,2044463932.0,321.0,299.0,458.0
1694006647.9865324,2044466112.0,317.0,316.0,457.0
1694006647.9870455,2044468292.0,328.0,342.0,456.0
1694006647.987579,2044470472.0,331.0,360.0,455.0
1694006647.987579,2044472652.0,355.0,365.0,459.0
1694006647.9881058,2044474832.0,359.0,352.0,457.0
1694006647.9886284,2044477012.0,317.0,324.0,458.0
1694006647.9891543,2044479192.0,273.0,309.0,459.0
1694006647.9891543,2044481372.0,349.0,294.0,457.0
1694006647.9896932,2044483552.0,279.0,295.0,456.0
1694006647.990319,2044485732.0,329.0,307.0,456.0
1694006647.990842,2044487916.0,373.0,330.0,456.0
1694006647.990842,2044490096.0,311.0,349.0,455.0
1694006647.9918804,2044492268.0,297.0,360.0,457.0
1694006647.992433,2044494448.0,352.0,356.0,457.0
1694006647.992967,2044496628.0,325.0,330.0,456.0
1694006647.994027,2044498808.0,301.0,313.0,544.0
1694006647.9945602,2044500988.0,333.0,296.0,547.0
1694006647.99562,2044503168.0,331.0,293.0,545.0
1694006647.99562,2044505348.0,327.0,297.0,548.0
1694006647.9961405,2044507528.0,350.0,329.0,546.0
1694006647.9966607,2044509708.0,313.0,346.0,549.0
1694006647.9971879,2044511884.0,320.0,360.0,546.0
1694006647.9977152,2044514064.0,330.0,358.0,546.0
1694006647.9977152,2044516244.0,324.0,345.0,547.0
1694006647.9982393,2044518424.0,318.0,320.0,548.0
1694006647.998793,2044520604.0,309.0,299.0,547.0
1694006647.998793,2044522784.0,304.0,291.0,547.0
1694006647.9993062,2044524964.0,390.0,291.0,548.0
1694006648.045104,2044527144.0,330.0,307.0,546.0
1694006648.045633,2044529324.0,282.0,340.0,547.0
1694006648.0461602,2044531504.0,325.0,359.0,548.0
1694006648.0466845,2044533684.0,325.0,360.0,547.0
1694006648.047212,2044535864.0,336.0,349.0,547.0
1694006648.047212,2044538044.0,330.0,327.0,550.0
1694006648.0477328,2044540224.0,304.0,302.0,545.0
1694006648.0482576,2044542400.0,336.0,293.0,548.0
1694006648.0487804,2044544580.0,343.0,295.0,547.0
1694006648.0487804,2044546764.0,288.0,314.0,546.0
1694006648.049313,2044548940.0,321.0,335.0,549.0
1694006648.049837,2044551120.0,342.0,351.0,548.0
1694006648.0503626,2044553300.0,339.0,361.0,545.0
1694006648.0503626,2044555480.0,284.0,348.0,549.0
1694006648.050884,2044557668.0,354.0,330.0,547.0
1694006648.0514102,2044559840.0,338.0,303.0,547.0
1694006648.0520034,2044562020.0,278.0,288.0,548.0
1694006648.052539,2044564200.0,279.0,291.0,545.0
1694006648.0530715,2044566380.0,328.0,311.0,546.0
1694006648.0530715,2044568560.0,365.0,338.0,547.0
1694006648.0536113,2044570744.0,357.0,356.0,549.0
1694006648.054135,2044572916.0,291.0,359.0,547.0
1694006648.0546641,2044575096.0,318.0,355.0,549.0
1694006648.0551867,2044577276.0,358.0,330.0,546.0
1694006648.0551867,2044579456.0,354.0,310.0,546.0
1694006648.0557148,2044581636.0,298.0,295.0,548.0
1694006648.056236,2044583816.0,267.0,294.0,548.0
1694006648.056758,2044586000.0,341.0,302.0,545.0
1694006648.1085792,2044588176.0,334.0,325.0,550.0
1694006648.1090991,2044590356.0,314.0,345.0,547.0
1694006648.1101537,2044592536.0,369.0,360.0,545.0
1694006648.1101537,2044594716.0,371.0,357.0,550.0
1694006648.1106777,2044596896.0,335.0,342.0,547.0
1694006648.1112003,2044599072.0,277.0,315.0,586.0
1694006648.1117265,2044601252.0,296.0,292.0,587.0
1694006648.1117265,2044603432.0,332.0,288.0,588.0
1694006648.1122549,2044605616.0,301.0,302.0,586.0
1694006648.112851,2044607792.0,360.0,323.0,587.0
1694006648.1133773,2044609972.0,339.0,344.0,591.0
1694006648.113922,2044612152.0,319.0,362.0,588.0
1694006648.1144278,2044614332.0,323.0,357.0,587.0
1694006648.1144557,2044616512.0,357.0,344.0,586.0
1694006648.1149817,2044618692.0,344.0,318.0,587.0
1694006648.115505,2044620872.0,225.0,294.0,589.0
1694006648.115505,2044623052.0,326.0,287.0,591.0
1694006648.1160305,2044625232.0,363.0,295.0,588.0
1694006648.1165547,2044627408.0,336.0,317.0,585.0
1694006648.11708,2044629588.0,316.0,343.0,588.0
1694006648.11708,2044631768.0,281.0,358.0,585.0
1694006648.1176076,2044633948.0,342.0,366.0,588.0
1694006648.1181335,2044636128.0,370.0,356.0,591.0
1694006648.1181335,2044638308.0,336.0,322.0,589.0
1694006648.1186564,2044640492.0,293.0,303.0,586.0
1694006648.1191874,2044642672.0,284.0,293.0,587.0
1694006648.1197114,2044644848.0,352.0,292.0,588.0
1694006648.1202385,2044647028.0,319.0,310.0,589.0
1694006648.1202385,2044649208.0,317.0,331.0,588.0
1694006648.1718285,2044651388.0,341.0,346.0,589.0
1694006648.1728828,2044653568.0,347.0,354.0,587.0
1694006648.17339,2044655748.0,347.0,354.0,590.0
1694006648.173414,2044657924.0,294.0,332.0,588.0
1694006648.1740239,2044660104.0,315.0,312.0,586.0
1694006648.1745503,2044662284.0,295.0,294.0,590.0
1694006648.175074,2044664464.0,296.0,294.0,591.0
1694006648.175074,2044666644.0,311.0,305.0,587.0
1694006648.1756015,2044668824.0,317.0,332.0,586.0
1694006648.1761296,2044671004.0,329.0,353.0,589.0
1694006648.1761296,2044673184.0,399.0,362.0,587.0
1694006648.1766539,2044675364.0,312.0,348.0,591.0
1694006648.1771786,2044677544.0,298.0,334.0,590.0
1694006648.1776848,2044679724.0,321.0,314.0,586.0
1694006648.1777022,2044681904.0,289.0,299.0,587.0
1694006648.1782234,2044684084.0,356.0,293.0,589.0
1694006648.1787546,2044686260.0,336.0,302.0,587.0
1694006648.1792774,2044688440.0,318.0,322.0,588.0
1694006648.1792774,2044690624.0,302.0,348.0,590.0
1694006648.1798024,2044692800.0,361.0,360.0,589.0
1694006648.1803262,2044694980.0,385.0,359.0,588.0
1694006648.1808474,2044697160.0,325.0,341.0,589.0
1694006648.1808474,2044699340.0,325.0,315.0,603.0
1694006648.18137,2044701520.0,278.0,297.0,601.0
1694006648.1818998,2044703700.0,319.0,292.0,602.0
1694006648.1818998,2044705880.0,318.0,302.0,603.0
1694006648.182427,2044708060.0,317.0,320.0,604.0
1694006648.1829572,2044710248.0,326.0,342.0,605.0
1694006648.1834924,2044712416.0,336.0,351.0,606.0
1694006648.2355773,2044714596.0,325.0,352.0,603.0
1694006648.2361174,2044716776.0,355.0,347.0,605.0
1694006648.2366424,2044718956.0,331.0,324.0,601.0
1694006648.2371707,2044721136.0,330.0,307.0,602.0
1694006648.2371707,2044723320.0,312.0,292.0,604.0
1694006648.2376926,2044725496.0,329.0,300.0,606.0
1694006648.238215,2044727676.0,316.0,315.0,604.0
1694006648.238734,2044729856.0,321.0,337.0,607.0
1694006648.2392552,2044732036.0,354.0,354.0,604.0
1694006648.2397604,2044734216.0,296.0,350.0,606.0
1694006648.2397823,2044736396.0,295.0,346.0,603.0
1694006648.240344,2044738576.0,319.0,331.0,604.0
1694006648.2408586,2044740756.0,312.0,309.0,602.0
1694006648.2413857,2044742932.0,325.0,296.0,606.0
1694006648.2413857,2044745112.0,351.0,295.0,607.0
1694006648.2419195,2044747292.0,336.0,309.0,602.0
1694006648.2424326,2044749472.0,278.0,327.0,604.0
1694006648.2424326,2044751652.0,339.0,350.0,603.0
1694006648.2429569,2044753832.0,298.0,363.0,608.0
1694006648.243481,2044756012.0,343.0,351.0,603.0
1694006648.2440016,2044758192.0,337.0,332.0,602.0
1694006648.2440016,2044760372.0,323.0,312.0,607.0
1694006648.2445338,2044762552.0,275.0,293.0,605.0
1694006648.2450516,2044764732.0,336.0,294.0,604.0
1694006648.245608,2044766908.0,322.0,307.0,602.0
1694006648.246139,2044769092.0,319.0,324.0,603.0
1694006648.246694,2044771268.0,336.0,343.0,606.0
1694006648.246694,2044773448.0,311.0,360.0,605.0
1694006648.2472246,2044775628.0,347.0,357.0,607.0
1694006648.247751,2044777816.0,349.0,338.0,604.0
1694006648.2954125,2044779988.0,318.0,312.0,602.0
1694006648.2959366,2044782168.0,342.0,300.0,603.0
1694006648.2964623,2044784348.0,327.0,293.0,605.0
1694006648.2964623,2044786528.0,328.0,301.0,602.0
1694006648.2970977,2044788708.0,259.0,320.0,605.0
1694006648.297625,2044790884.0,351.0,344.0,603.0
1694006648.298145,2044793068.0,312.0,354.0,602.0
1694006648.298145,2044795248.0,276.0,355.0,604.0
1694006648.2986674,2044797424.0,336.0,345.0,610.0
1694006648.2991881,2044799608.0,326.0,322.0,608.0
1694006648.2991881,2044801784.0,322.0,301.0,608.0
1694006648.2997162,2044803964.0,320.0,287.0,611.0
1694006648.3002355,2044806152.0,350.0,295.0,613.0
1694006648.30074,2044808324.0,305.0,315.0,609.0
1694006648.3007653,2044810504.0,336.0,340.0,611.0
1694006648.3012872,2044812684.0,364.0,355.0,607.0
1694006648.3018112,2044814864.0,261.0,359.0,612.0
1694006648.3018112,2044817044.0,321.0,350.0,612.0
1694006648.302335,2044819224.0,343.0,329.0,608.0
1694006648.3028595,2044821400.0,347.0,307.0,611.0
1694006648.3028595,2044823584.0,345.0,298.0,611.0
1694006648.303385,2044825764.0,325.0,299.0,610.0
1694006648.3039138,2044827940.0,336.0,304.0,611.0
1694006648.3039138,2044830120.0,278.0,321.0,609.0
1694006648.304437,2044832300.0,314.0,347.0,608.0
1694006648.3049638,2044834480.0,371.0,361.0,608.0
1694006648.3049638,2044836660.0,336.0,348.0,607.0
1694006648.3577309,2044838840.0,307.0,333.0,611.0
1694006648.3582597,2044841020.0,306.0,315.0,608.0
1694006648.3587787,2044843200.0,324.0,297.0,610.0
1694006648.3587787,2044845380.0,334.0,295.0,613.0
1694006648.3593085,2044847556.0,321.0,309.0,608.0
1694006648.3598313,2044849740.0,284.0,326.0,611.0
1694006648.360355,2044851916.0,333.0,345.0,608.0
1694006648.3608847,2044854096.0,368.0,357.0,611.0
1694006648.3608847,2044856276.0,280.0,352.0,613.0
1694006648.3614137,2044858456.0,351.0,338.0,613.0
1694006648.3619375,2044860636.0,322.0,316.0,608.0
1694006648.3619375,2044862824.0,345.0,301.0,609.0
1694006648.3624647,2044864996.0,271.0,288.0,609.0
1694006648.3629856,2044867176.0,331.0,298.0,611.0
1694006648.363514,2044869356.0,280.0,322.0,613.0
1694006648.3640363,2044871536.0,319.0,340.0,608.0
1694006648.3640363,2044873716.0,324.0,359.0,610.0
1694006648.3645597,2044875896.0,336.0,361.0,613.0
1694006648.365087,2044878076.0,314.0,346.0,610.0
1694006648.365087,2044880252.0,349.0,320.0,613.0
1694006648.365616,2044882432.0,357.0,304.0,610.0
1694006648.366139,2044884612.0,323.0,292.0,608.0
1694006648.366139,2044886792.0,278.0,297.0,608.0
1694006648.3666592,2044888972.0,291.0,319.0,610.0
1694006648.3671815,2044891152.0,322.0,339.0,610.0
1694006648.3671815,2044893332.0,325.0,353.0,607.0
1694006648.3677063,2044895512.0,324.0,350.0,613.0
1694006648.368228,2044897692.0,367.0,348.0,617.0
1694006648.368228,2044899872.0,307.0,325.0,612.0
1694006648.4208093,2044902052.0,365.0,305.0,613.0
1694006648.421334,2044904232.0,327.0,293.0,615.0
1694006648.421859,2044906412.0,353.0,295.0,614.0
1694006648.422384,2044908588.0,253.0,308.0,615.0
1694006648.422384,2044910768.0,281.0,329.0,616.0
1694006648.4229054,2044912948.0,382.0,352.0,613.0
1694006648.423433,2044915128.0,346.0,362.0,614.0
1694006648.4239602,2044917308.0,267.0,356.0,612.0
1694006648.4239602,2044919488.0,344.0,337.0,611.0
1694006648.4244814,2044921668.0,348.0,315.0,612.0
1694006648.4250038,2044923848.0,253.0,293.0,611.0
1694006648.4255257,2044926028.0,363.0,288.0,613.0
1694006648.4255257,2044928208.0,391.0,299.0,611.0
1694006648.4260483,2044930396.0,258.0,325.0,610.0
1694006648.42657,2044932564.0,310.0,348.0,612.0
1694006648.427098,2044934748.0,300.0,360.0,616.0
1694006648.427098,2044936924.0,345.0,357.0,611.0
1694006648.427629,2044939104.0,371.0,343.0,611.0
1694006648.428156,2044941284.0,297.0,318.0,614.0
1694006648.4286914,2044943464.0,279.0,294.0,611.0
1694006648.429222,2044945644.0,358.0,290.0,617.0
1694006648.429222,2044947824.0,307.0,300.0,613.0
1694006648.429742,2044950004.0,337.0,322.0,616.0
1694006648.4303105,2044952184.0,296.0,344.0,612.0
1694006648.4303105,2044954364.0,327.0,357.0,614.0
1694006648.4308314,2044956544.0,344.0,356.0,613.0
1694006648.4313548,2044958728.0,326.0,345.0,613.0
1694006648.4313548,2044960904.0,329.0,323.0,613.0
1694006648.4318776,2044963084.0,330.0,303.0,611.0
1694006648.484447,2044965260.0,319.0,294.0,615.0
1694006648.4849713,2044967440.0,262.0,297.0,613.0
1694006648.4854937,2044969620.0,312.0,306.0,613.0
1694006648.486018,2044971800.0,341.0,329.0,612.0
1694006648.486018,2044973980.0,366.0,355.0,611.0
1694006648.486536,2044976160.0,334.0,364.0,616.0
1694006648.4870594,2044978340.0,322.0,352.0,614.0
1694006648.4870594,2044980520.0,288.0,334.0,611.0
1694006648.48758,2044982700.0,359.0,304.0,615.0
1694006648.4881017,2044984880.0,354.0,295.0,614.0
1694006648.4886272,2044987056.0,219.0,295.0,612.0
1694006648.4886272,2044989240.0,373.0,305.0,612.0
1694006648.4891486,2044991416.0,306.0,326.0,616.0
1694006648.4896698,2044993596.0,322.0,349.0,612.0
1694006648.4901938,2044995776.0,341.0,363.0,612.0
1694006648.4901938,2044997956.0,333.0,358.0,614.0
1694006648.4907186,2045000136.0,334.0,335.0,616.0
1694006648.491241,2045002316.0,283.0,313.0,612.0
1694006648.4917643,2045004496.0,340.0,294.0,616.0
1694006648.4917643,2045006676.0,304.0,288.0,614.0
1694006648.492287,2045008856.0,344.0,304.0,612.0
1694006648.4928076,2045011036.0,342.0,327.0,611.0
1694006648.4933326,2045013216.0,321.0,346.0,613.0
1694006648.4933326,2045015404.0,332.0,363.0,616.0
1694006648.4938643,2045017576.0,338.0,359.0,613.0
1694006648.4943957,2045019752.0,330.0,339.0,612.0
1694006648.4943957,2045021932.0,332.0,310.0,611.0
1694006648.4949265,2045024112.0,317.0,290.0,616.0
1694006648.495453,2045026292.0,324.0,286.0,616.0
1694006648.4960325,2045028472.0,363.0,296.0,615.0
1694006648.5480943,2045030652.0,318.0,325.0,611.0
1694006648.5486195,2045032832.0,303.0,345.0,617.0
1694006648.549147,2045035012.0,298.0,364.0,612.0
1694006648.5496671,2045037192.0,372.0,360.0,617.0
1694006648.5496671,2045039372.0,335.0,340.0,618.0
1694006648.550192,2045041548.0,308.0,322.0,612.0
1694006648.5507147,2045043732.0,344.0,300.0,612.0
1694006648.5512347,2045045912.0,356.0,290.0,616.0
1694006648.5512347,2045048088.0,354.0,298.0,611.0
1694006648.551762,2045050268.0,312.0,317.0,615.0
1694006648.552284,2045052448.0,356.0,340.0,615.0
1694006648.552284,2045054628.0,291.0,353.0,612.0
1694006648.5528083,2045056808.0,303.0,358.0,611.0
1694006648.5533311,2045058988.0,317.0,347.0,614.0
1694006648.5533311,2045061168.0,322.0,326.0,613.0
1694006648.5538588,2045063348.0,329.0,307.0,616.0
1694006648.55438,2045065528.0,318.0,292.0,616.0
1694006648.55438,2045067708.0,298.0,294.0,612.0
1694006648.5549028,2045069884.0,332.0,308.0,608.0
1694006648.5554333,2045072068.0,293.0,333.0,615.0
1694006648.5554333,2045074244.0,364.0,352.0,611.0
1694006648.555964,2045076428.0,331.0,358.0,615.0
1694006648.556491,2045078604.0,337.0,354.0,616.0
1694006648.556491,2045080784.0,303.0,334.0,612.0
1694006648.5571842,2045082972.0,340.0,308.0,613.0
1694006648.5577128,2045085144.0,317.0,296.0,616.0
1694006648.5577128,2045087324.0,325.0,289.0,611.0
1694006648.558232,2045089504.0,306.0,304.0,614.0
1694006648.558754,2045091684.0,336.0,329.0,612.0
1694006648.607585,2045093864.0,329.0,349.0,616.0
1694006648.6086347,2045096044.0,331.0,364.0,613.0
1694006648.6091657,2045098224.0,368.0,354.0,615.0
1694006648.609698,2045100404.0,341.0,337.0,617.0
1694006648.609698,2045102580.0,314.0,311.0,614.0
1694006648.610227,2045104764.0,300.0,295.0,613.0
1694006648.6107595,2045106940.0,346.0,294.0,618.0
1694006648.6112695,2045109120.0,302.0,300.0,611.0
1694006648.6112883,2045111308.0,326.0,325.0,616.0
1694006648.6118178,2045113480.0,334.0,347.0,619.0
1694006648.612347,2045115660.0,328.0,356.0,612.0
1694006648.612347,2045117840.0,340.0,356.0,616.0
1694006648.6128767,2045120020.0,315.0,343.0,614.0
1694006648.613407,2045122200.0,385.0,319.0,612.0
1694006648.613407,2045124380.0,294.0,300.0,615.0
1694006648.6139414,2045126560.0,300.0,291.0,614.0
1694006648.6144786,2045128736.0,309.0,298.0,614.0
1694006648.6144786,2045130920.0,315.0,316.0,615.0
1694006648.6150146,2045133096.0,351.0,342.0,618.0
1694006648.6155488,2045135276.0,352.0,358.0,612.0
1694006648.6160789,2045137456.0,340.0,360.0,614.0
1694006648.6160789,2045139636.0,245.0,347.0,614.0
1694006648.616609,2045141816.0,351.0,324.0,613.0
1694006648.6171496,2045143996.0,349.0,305.0,614.0
1694006648.6176813,2045146176.0,329.0,295.0,616.0
1694006648.6176813,2045148356.0,314.0,294.0,615.0
1694006648.6183083,2045150536.0,297.0,300.0,613.0
1694006648.671256,2045152716.0,323.0,330.0,614.0
1694006648.671778,2045154896.0,336.0,353.0,618.0
1694006648.6722898,2045157072.0,325.0,363.0,613.0
1694006648.6722898,2045159252.0,312.0,358.0,617.0
1694006648.672817,2045161436.0,337.0,334.0,610.0
1694006648.6733296,2045163612.0,320.0,304.0,613.0
1694006648.67385,2045165800.0,317.0,288.0,616.0
1694006648.67385,2045167980.0,342.0,290.0,616.0
1694006648.674366,2045170152.0,365.0,306.0,611.0
1694006648.6748877,2045172332.0,318.0,330.0,615.0
1694006648.6754143,2045174512.0,286.0,353.0,612.0
1694006648.6754143,2045176692.0,308.0,362.0,615.0
1694006648.6759405,2045178872.0,335.0,354.0,617.0
1694006648.6764696,2045181052.0,341.0,338.0,615.0
1694006648.676992,2045183228.0,326.0,311.0,616.0
1694006648.6775196,2045185408.0,322.0,296.0,613.0
1694006648.6775196,2045187592.0,315.0,291.0,613.0
1694006648.6780384,2045189768.0,328.0,301.0,614.0
1694006648.6785629,2045191948.0,332.0,321.0,616.0
1694006648.6790848,2045194128.0,325.0,346.0,613.0
1694006648.6795905,2045196308.0,329.0,360.0,613.0
1694006648.6796885,2045198488.0,332.0,359.0,616.0
1694006648.6802201,2045200668.0,345.0,344.0,614.0
1694006648.680744,2045202848.0,285.0,314.0,617.0
1694006648.680744,2045205028.0,339.0,298.0,612.0
1694006648.6812673,2045207208.0,327.0,294.0,616.0
1694006648.681792,2045209388.0,331.0,294.0,616.0
1694006648.681792,2045211564.0,317.0,316.0,614.0
1694006648.682322,2045213744.0,346.0,340.0,612.0
1694006648.6828406,2045215924.0,322.0,360.0,620.0
1694006648.73524,2045218104.0,313.0,356.0,616.0
1694006648.7357647,2045220284.0,336.0,346.0,614.0
1694006648.7362845,2045222464.0,334.0,329.0,616.0
1694006648.7368073,2045224644.0,327.0,304.0,614.0
1694006648.7368073,2045226824.0,314.0,288.0,612.0
1694006648.7373343,2045229004.0,336.0,293.0,618.0
1694006648.7378647,2045231184.0,327.0,312.0,615.0
1694006648.7383852,2045233364.0,305.0,335.0,617.0
1694006648.7383852,2045235552.0,313.0,355.0,615.0
1694006648.7389078,2045237724.0,327.0,358.0,613.0
1694006648.7394369,2045239904.0,335.0,350.0,614.0
1694006648.7394369,2045242084.0,328.0,335.0,618.0
1694006648.7399557,2045244260.0,319.0,307.0,614.0
1694006648.7404804,2045246440.0,327.0,282.0,614.0
1694006648.7409852,2045248620.0,320.0,291.0,614.0
1694006648.7411213,2045250800.0,310.0,310.0,616.0
1694006648.7416546,2045252980.0,325.0,330.0,615.0
1694006648.742183,2045255160.0,362.0,354.0,620.0
1694006648.742183,2045257340.0,326.0,362.0,613.0
1694006648.742708,2045259520.0,338.0,355.0,614.0
1694006648.743236,2045261700.0,331.0,336.0,613.0
1694006648.7437618,2045263884.0,324.0,312.0,614.0
1694006648.7437618,2045266060.0,297.0,300.0,615.0
1694006648.7442849,2045268240.0,327.0,296.0,618.0
1694006648.7448006,2045270416.0,321.0,297.0,614.0
1694006648.7453258,2045272596.0,311.0,320.0,612.0
1694006648.7458487,2045274776.0,336.0,345.0,618.0
1694006648.7458487,2045276956.0,341.0,355.0,617.0
1694006648.7463741,2045279136.0,325.0,356.0,613.0
1694006648.7988427,2045281316.0,319.0,342.0,618.0
1694006648.7993748,2045283496.0,326.0,318.0,619.0
1694006648.7998998,2045285676.0,318.0,301.0,614.0
1694006648.8004224,2045287856.0,305.0,291.0,616.0
1694006648.8004224,2045290036.0,327.0,297.0,618.0
1694006648.800952,2045292216.0,338.0,322.0,613.0
1694006648.8014734,2045294392.0,323.0,342.0,616.0
1694006648.8014734,2045296572.0,331.0,349.0,612.0
1694006648.8020034,2045298756.0,326.0,357.0,608.0
1694006648.8026254,2045300932.0,331.0,341.0,610.0
1694006648.8031335,2045303112.0,331.0,333.0,613.0
1694006648.803157,2045305292.0,327.0,302.0,612.0
1694006648.8036835,2045307472.0,309.0,286.0,609.0
1694006648.8042047,2045309652.0,303.0,299.0,613.0
1694006648.8047278,2045311832.0,347.0,309.0,608.0
1694006648.8047278,2045314012.0,340.0,336.0,611.0
1694006648.8052526,2045316192.0,333.0,360.0,608.0
1694006648.8057852,2045318380.0,315.0,358.0,611.0
1694006648.8063145,2045320556.0,321.0,349.0,609.0
1694006648.8063145,2045322728.0,325.0,329.0,610.0
1694006648.8068411,2045324912.0,316.0,307.0,613.0
1694006648.8073688,2045327088.0,313.0,291.0,607.0
1694006648.8073688,2045329268.0,337.0,293.0,609.0
1694006648.8078966,2045331448.0,331.0,313.0,611.0
1694006648.8084264,2045333628.0,325.0,335.0,610.0
1694006648.8084264,2045335808.0,324.0,339.0,610.0
1694006648.8089495,2045337988.0,328.0,361.0,613.0
1694006648.8094776,2045340168.0,332.0,359.0,608.0
1694006648.8094776,2045342348.0,327.0,336.0,613.0
1694006648.8587048,2045344528.0,322.0,309.0,611.0
1694006648.859759,2045346708.0,318.0,291.0,608.0
1694006648.8602905,2045348884.0,315.0,289.0,611.0
1694006648.8602905,2045351068.0,321.0,307.0,610.0
1694006648.8608143,2045353248.0,326.0,332.0,608.0
1694006648.8613384,2045355428.0,330.0,346.0,612.0
1694006648.861863,2045357604.0,328.0,355.0,611.0
1694006648.8623862,2045359784.0,313.0,358.0,609.0
1694006648.8623862,2045361964.0,339.0,341.0,609.0
1694006648.8629086,2045364144.0,347.0,316.0,609.0
1694006648.8634357,2045366324.0,324.0,300.0,613.0
1694006648.8640652,2045368504.0,314.0,291.0,608.0
1694006648.8640652,2045370684.0,317.0,298.0,613.0
1694006648.86459,2045372864.0,320.0,319.0,611.0
1694006648.8651135,2045375044.0,325.0,349.0,608.0
1694006648.865634,2045377224.0,318.0,360.0,609.0
1694006648.8656435,2045379404.0,334.0,358.0,607.0
1694006648.8661668,2045381580.0,334.0,339.0,612.0
1694006648.8666933,2045383760.0,335.0,321.0,613.0
1694006648.8672252,2045385944.0,336.0,303.0,613.0
1694006648.8672252,2045388128.0,316.0,293.0,608.0
1694006648.8677433,2045390300.0,315.0,294.0,611.0
1694006648.8682635,2045392480.0,320.0,310.0,607.0
1694006648.8687873,2045394660.0,319.0,337.0,608.0
1694006648.8687873,2045396840.0,335.0,353.0,573.0
1694006648.8693118,2045399020.0,333.0,368.0,573.0
1694006648.8698397,2045401208.0,331.0,355.0,568.0
1694006648.8698397,2045403380.0,320.0,327.0,573.0
1694006648.9232507,2045405556.0,323.0,307.0,573.0
1694006648.9255981,2045407740.0,320.0,292.0,569.0
1694006648.9272156,2045409920.0,315.0,290.0,572.0
1694006648.9277527,2045412096.0,323.0,302.0,573.0
1694006648.9282784,2045414276.0,325.0,328.0,569.0
1694006648.928792,2045416464.0,331.0,350.0,572.0
1694006648.9293156,2045418636.0,315.0,367.0,572.0
1694006648.9293156,2045420816.0,335.0,355.0,568.0
1694006648.9298313,2045422996.0,329.0,335.0,573.0
1694006648.9303598,2045425176.0,332.0,317.0,573.0
1694006648.9303598,2045427356.0,323.0,293.0,568.0
1694006648.9308846,2045429536.0,319.0,298.0,568.0
1694006648.9314156,2045431716.0,317.0,292.0,570.0
1694006648.9314156,2045433896.0,323.0,323.0,571.0
1694006648.9319315,2045436072.0,330.0,348.0,574.0
1694006648.93246,2045438256.0,333.0,361.0,573.0
1694006648.9329774,2045440432.0,332.0,351.0,570.0
1694006648.9335046,2045442612.0,336.0,343.0,569.0
1694006648.9335046,2045444792.0,325.0,323.0,571.0
1694006648.9340262,2045446972.0,316.0,296.0,570.0
1694006648.9345562,2045449152.0,320.0,292.0,573.0
1694006648.9350703,2045451332.0,319.0,300.0,573.0
1694006648.9355989,2045453512.0,323.0,318.0,568.0
1694006648.9361198,2045455692.0,326.0,338.0,572.0
1694006648.9361198,2045457872.0,330.0,364.0,572.0
1694006648.9366498,2045460052.0,336.0,354.0,568.0
1694006648.937182,2045462232.0,327.0,353.0,570.0
1694006648.9377131,2045464408.0,329.0,313.0,572.0
1694006648.9382384,2045466588.0,318.0,292.0,571.0
1694006648.938762,2045468768.0,318.0,297.0,569.0
1694006648.98349,2045470956.0,320.0,304.0,568.0
1694006648.984005,2045473136.0,313.0,314.0,568.0
1694006648.984534,2045475308.0,326.0,334.0,573.0
1694006648.9850614,2045477488.0,337.0,358.0,570.0
1694006648.9855945,2045479668.0,332.0,359.0,570.0
1694006648.9862363,2045481848.0,329.0,345.0,568.0
1694006648.9867573,2045484028.0,327.0,325.0,569.0
1694006648.9867659,2045486208.0,326.0,306.0,568.0
1694006648.9872866,2045488388.0,325.0,294.0,571.0
1694006648.987808,2045490568.0,325.0,292.0,570.0
1694006648.987808,2045492744.0,312.0,312.0,569.0
1694006648.9883313,2045494928.0,322.0,332.0,571.0
1694006648.98885,2045497104.0,325.0,351.0,477.0
1694006648.98885,2045499284.0,341.0,363.0,477.0
1694006648.9893763,2045501464.0,323.0,352.0,480.0
1694006648.9898882,2045503644.0,324.0,338.0,478.0
1694006648.9904172,2045505824.0,334.0,311.0,476.0
1694006648.9904172,2045508004.0,324.0,292.0,476.0
1694006648.990954,2045510184.0,322.0,293.0,476.0
1694006648.9914813,2045512364.0,318.0,298.0,479.0
1694006648.9920096,2045514544.0,325.0,324.0,477.0
1694006648.9925373,2045516724.0,324.0,350.0,478.0
1694006648.9930608,2045518900.0,328.0,366.0,477.0
1694006648.9930608,2045521084.0,329.0,348.0,476.0
1694006648.9935796,2045523264.0,332.0,342.0,479.0
1694006648.9941008,2045525440.0,328.0,319.0,476.0
1694006648.9941008,2045527620.0,322.0,295.0,478.0
1694006648.994625,2045529800.0,302.0,286.0,479.0
1694006649.0481331,2045531980.0,318.0,297.0,477.0
1694006649.048664,2045534160.0,324.0,322.0,476.0
1694006649.0491855,2045536340.0,333.0,343.0,479.0
1694006649.04971,2045538520.0,330.0,363.0,479.0
1694006649.050236,2045540708.0,338.0,359.0,479.0
1694006649.050236,2045542880.0,329.0,345.0,478.0
1694006649.0507576,2045545060.0,326.0,314.0,477.0
1694006649.051283,2045547236.0,326.0,308.0,475.0
1694006649.051283,2045549420.0,307.0,295.0,478.0
1694006649.0518029,2045551596.0,312.0,294.0,477.0
1694006649.0523312,2045553784.0,322.0,307.0,478.0
1694006649.0523312,2045555956.0,328.0,339.0,478.0
1694006649.0528617,2045558136.0,328.0,358.0,477.0
1694006649.0533853,2045560316.0,337.0,360.0,477.0
1694006649.0533853,2045562496.0,334.0,341.0,478.0
1694006649.0539079,2045564676.0,330.0,330.0,476.0
1694006649.0544283,2045566856.0,311.0,303.0,478.0
1694006649.054952,2045569040.0,322.0,294.0,479.0
1694006649.054952,2045571216.0,313.0,294.0,477.0
1694006649.0554726,2045573396.0,322.0,310.0,476.0
1694006649.055995,2045575572.0,321.0,336.0,480.0
1694006649.056531,2045577756.0,331.0,351.0,478.0
1694006649.0570548,2045579932.0,338.0,356.0,479.0
1694006649.0570548,2045582112.0,339.0,353.0,480.0
1694006649.0575833,2045584292.0,329.0,333.0,476.0
1694006649.0581114,2045586472.0,321.0,311.0,477.0
1694006649.0586164,2045588652.0,306.0,293.0,479.0
1694006649.0586352,2045590832.0,308.0,296.0,476.0
1694006649.0591686,2045593012.0,312.0,306.0,475.0
1694006649.107777,2045595192.0,346.0,324.0,393.0
1694006649.1082985,2045597372.0,349.0,346.0,390.0
1694006649.1088223,2045599552.0,335.0,358.0,390.0
1694006649.1094933,2045601728.0,329.0,361.0,392.0
1694006649.1100225,2045603908.0,324.0,332.0,392.0
1694006649.1100225,2045606088.0,323.0,312.0,391.0
1694006649.1105464,2045608268.0,321.0,305.0,394.0
1694006649.1110773,2045610448.0,314.0,284.0,391.0
1694006649.111611,2045612628.0,318.0,296.0,392.0
1694006649.111611,2045614808.0,318.0,329.0,391.0
1694006649.1121395,2045616988.0,333.0,351.0,391.0
1694006649.1126695,2045619168.0,334.0,359.0,390.0
1694006649.1126695,2045621348.0,326.0,343.0,392.0
1694006649.1132014,2045623532.0,330.0,341.0,393.0
1694006649.11373,2045625712.0,329.0,326.0,390.0
1694006649.11373,2045627888.0,326.0,304.0,393.0
1694006649.114254,2045630068.0,315.0,289.0,390.0
1694006649.1147828,2045632248.0,312.0,293.0,392.0
1694006649.1153061,2045634424.0,326.0,318.0,393.0
1694006649.1153061,2045636608.0,330.0,335.0,391.0
1694006649.1158288,2045638784.0,331.0,359.0,391.0
1694006649.1163552,2045640964.0,328.0,362.0,393.0
1694006649.1168773,2045643144.0,333.0,349.0,392.0
1694006649.1168773,2045645324.0,327.0,322.0,390.0
1694006649.1173995,2045647504.0,324.0,300.0,393.0
1694006649.1179202,2045649684.0,316.0,286.0,394.0
1694006649.1179202,2045651864.0,315.0,293.0,392.0
1694006649.1184394,2045654044.0,323.0,315.0,390.0
1694006649.1705794,2045656224.0,328.0,339.0,391.0
1694006649.1711226,2045658400.0,330.0,356.0,392.0
1694006649.1716576,2045660584.0,334.0,367.0,393.0
1694006649.172192,2045662760.0,341.0,353.0,393.0
1694006649.1727238,2045664940.0,321.0,310.0,392.0
1694006649.173253,2045667120.0,318.0,295.0,392.0
1694006649.1737728,2045669300.0,319.0,306.0,392.0
1694006649.1737728,2045671480.0,317.0,293.0,392.0
1694006649.174342,2045673660.0,320.0,305.0,393.0
1694006649.174861,2045675840.0,319.0,333.0,392.0
1694006649.1753874,2045678020.0,328.0,352.0,390.0
1694006649.1753874,2045680200.0,341.0,368.0,390.0
1694006649.1759477,2045682380.0,334.0,352.0,390.0
1694006649.17648,2045684556.0,336.0,335.0,390.0
1694006649.17648,2045686740.0,317.0,308.0,391.0
1694006649.1770537,2045688916.0,313.0,294.0,390.0
1694006649.1775956,2045691100.0,323.0,294.0,391.0
1694006649.1781104,2045693284.0,307.0,305.0,391.0
1694006649.1786146,2045695456.0,324.0,326.0,340.0
1694006649.178634,2045697636.0,346.0,343.0,339.0
1694006649.1791902,2045699816.0,351.0,352.0,339.0
1694006649.1796951,2045701996.0,313.0,364.0,341.0
1694006649.1797326,2045704176.0,316.0,333.0,339.0
1694006649.1802504,2045706360.0,331.0,321.0,342.0
1694006649.1807868,2045708536.0,325.0,298.0,339.0
1694006649.1807868,2045710716.0,320.0,296.0,340.0
1694006649.1813293,2045712896.0,320.0,297.0,340.0
1694006649.1818578,2045715076.0,322.0,320.0,341.0
1694006649.1823826,2045717252.0,325.0,340.0,339.0
1694006649.23298,2045719436.0,326.0,354.0,339.0
1694006649.2334943,2045721616.0,334.0,353.0,341.0
1694006649.2340217,2045723792.0,331.0,351.0,339.0
1694006649.2340217,2045725972.0,331.0,326.0,340.0
1694006649.2345407,2045728152.0,326.0,301.0,341.0
1694006649.2350683,2045730332.0,314.0,289.0,340.0
1694006649.235588,2045732512.0,311.0,296.0,340.0
1694006649.235588,2045734692.0,316.0,314.0,340.0
1694006649.2361114,2045736872.0,327.0,338.0,339.0
1694006649.2366319,2045739052.0,329.0,356.0,339.0
1694006649.2371602,2045741232.0,337.0,359.0,341.0
1694006649.237665,2045743408.0,333.0,346.0,340.0
1694006649.2376873,2045745592.0,327.0,330.0,340.0
1694006649.2382078,2045747768.0,315.0,311.0,341.0
1694006649.2387693,2045749948.0,315.0,288.0,342.0
1694006649.2392988,2045752128.0,326.0,293.0,340.0
1694006649.2392988,2045754308.0,318.0,296.0,339.0
1694006649.2398236,2045756488.0,315.0,331.0,342.0
1694006649.240346,2045758668.0,328.0,359.0,340.0
1694006649.2408783,2045760856.0,338.0,365.0,339.0
1694006649.2414088,2045763028.0,336.0,355.0,339.0
1694006649.2424626,2045765208.0,315.0,345.0,340.0
1694006649.2429914,2045767388.0,321.0,310.0,340.0
1694006649.2440572,2045769568.0,323.0,277.0,338.0
1694006649.2445886,2045771744.0,319.0,270.0,341.0
1694006649.245118,2045773928.0,326.0,305.0,339.0
1694006649.2456424,2045776108.0,325.0,331.0,339.0
1694006649.2461722,2045778288.0,324.0,347.0,342.0
1694006649.2461722,2045780464.0,339.0,362.0,340.0
1694006649.2976978,2045782644.0,339.0,366.0,339.0
1694006649.2982278,2045784824.0,316.0,339.0,341.0
1694006649.298752,2045787004.0,323.0,310.0,341.0
1694006649.298752,2045789192.0,320.0,304.0,340.0
1694006649.2992733,2045791364.0,320.0,294.0,339.0
1694006649.2997925,2045793544.0,325.0,300.0,339.0
1694006649.3003166,2045795724.0,320.0,321.0,309.0
1694006649.3008363,2045797904.0,324.0,339.0,309.0
1694006649.3013408,2045800084.0,331.0,361.0,309.0
1694006649.3013597,2045802260.0,329.0,354.0,308.0
1694006649.3018863,2045804440.0,334.0,338.0,307.0
1694006649.3024125,2045806620.0,326.0,328.0,311.0
1694006649.3024125,2045808800.0,319.0,307.0,310.0
1694006649.3029428,2045810980.0,326.0,287.0,309.0
1694006649.3034642,2045813160.0,313.0,291.0,308.0
1694006649.3039846,2045815340.0,317.0,307.0,311.0
1694006649.3039846,2045817520.0,325.0,337.0,309.0
1694006649.304509,2045819700.0,332.0,357.0,309.0
1694006649.305049,2045821880.0,333.0,359.0,308.0
1694006649.305555,2045824060.0,330.0,352.0,309.0
1694006649.305574,2045826240.0,319.0,317.0,309.0
1694006649.306106,2045828416.0,326.0,319.0,310.0
1694006649.306629,2045830596.0,326.0,300.0,307.0
1694006649.3071332,2045832776.0,316.0,284.0,310.0
1694006649.3076982,2045834956.0,314.0,304.0,307.0
1694006649.3076982,2045837136.0,322.0,332.0,309.0
1694006649.3082025,2045839316.0,334.0,357.0,310.0
1694006649.3088064,2045841496.0,336.0,360.0,308.0
1694006649.3093302,2045843676.0,328.0,346.0,308.0
1694006649.309841,2045845864.0,336.0,343.0,308.0
1694006649.3612595,2045848036.0,324.0,314.0,308.0
1694006649.3617866,2045850212.0,318.0,293.0,310.0
1694006649.3623128,2045852396.0,319.0,287.0,308.0
1694006649.3628416,2045854576.0,321.0,302.0,307.0
1694006649.3633695,2045856752.0,321.0,335.0,307.0
1694006649.3638885,2045858936.0,333.0,352.0,309.0
1694006649.3638885,2045861112.0,320.0,348.0,309.0
1694006649.3644142,2045863292.0,334.0,378.0,310.0
1694006649.3649464,2045865472.0,333.0,339.0,308.0
1694006649.365481,2045867652.0,329.0,310.0,307.0
1694006649.365481,2045869832.0,322.0,283.0,308.0
1694006649.366012,2045872012.0,316.0,292.0,307.0
1694006649.3665395,2045874192.0,322.0,303.0,307.0
1694006649.3665395,2045876372.0,320.0,322.0,310.0
1694006649.36707,2045878552.0,325.0,345.0,309.0
1694006649.367602,2045880732.0,333.0,356.0,308.0
1694006649.367602,2045882908.0,339.0,360.0,308.0
1694006649.3681276,2045885088.0,335.0,354.0,309.0
1694006649.368653,2045887268.0,322.0,313.0,308.0
1694006649.3691843,2045889448.0,319.0,302.0,309.0
1694006649.3691843,2045891628.0,327.0,297.0,308.0
1694006649.3697925,2045893808.0,316.0,294.0,285.0
1694006649.370317,2045895988.0,325.0,311.0,286.0
1694006649.3708367,2045898168.0,320.0,341.0,287.0
1694006649.3713636,2045900348.0,323.0,357.0,286.0
1694006649.371886,2045902528.0,326.0,365.0,285.0
1694006649.371886,2045904708.0,333.0,350.0,287.0
1694006649.3724108,2045906884.0,330.0,323.0,285.0
1694006649.3729362,2045909068.0,314.0,297.0,285.0
