global_time,timestamp,Outer forearm sensor value (1),Inner forearm sensor value (2),Touch sensor 3 (ring finger),Touch sensor 2 (middle finger),Touch sensor 1 (index finger)
1694001868.3737853,66468364.0,336.0,322.0,0.0,0.0,1.0
1694001868.3747852,66470456.0,328.0,326.0,0.0,0.0,1.0
1694001868.3747852,66472548.0,331.0,325.0,0.0,0.0,1.0
1694001868.3757858,66474640.0,340.0,323.0,0.0,0.0,1.0
1694001868.3767855,66476736.0,344.0,329.0,0.0,0.0,1.0
1694001868.3767855,66478828.0,317.0,332.0,0.0,0.0,1.0
1694001868.3777866,66480920.0,333.0,328.0,0.0,0.0,1.0
1694001868.3777866,66483012.0,333.0,328.0,0.0,0.0,1.0
1694001868.378787,66485104.0,343.0,325.0,0.0,0.0,1.0
1694001868.379786,66487196.0,330.0,322.0,0.0,0.0,1.0
1694001868.379786,66489288.0,337.0,322.0,0.0,0.0,1.0
1694001868.3807855,66491384.0,333.0,323.0,0.0,0.0,1.0
1694001868.3807855,66493476.0,323.0,325.0,0.0,0.0,1.0
1694001868.381786,66495568.0,328.0,327.0,0.0,0.0,1.0
1694001868.3827856,66497660.0,314.0,329.0,0.0,0.0,1.0
1694001868.3827856,66499752.0,331.0,331.0,0.0,0.0,1.0
1694001868.383786,66501844.0,327.0,331.0,0.0,0.0,1.0
1694001868.383786,66503936.0,344.0,329.0,0.0,0.0,1.0
1694001868.3847857,66506028.0,352.0,327.0,0.0,0.0,1.0
1694001868.3847857,66508120.0,337.0,322.0,0.0,0.0,1.0
1694001868.3857856,66510216.0,331.0,323.0,1.0,0.0,1.0
1694001868.3857856,66512308.0,335.0,322.0,1.0,1.0,1.0
1694001868.3867857,66514400.0,327.0,325.0,1.0,1.0,1.0
1694001868.3877857,66516492.0,335.0,327.0,1.0,1.0,1.0
1694001868.3877857,66518584.0,348.0,328.0,1.0,1.0,1.0
1694001868.3887851,66520676.0,330.0,334.0,1.0,1.0,1.0
1694001868.3887851,66522768.0,312.0,325.0,1.0,1.0,1.0
1694001868.389785,66524864.0,321.0,320.0,1.0,1.0,1.0
1694001868.3907847,66526956.0,333.0,326.0,1.0,1.0,1.0
1694001868.437785,66529048.0,334.0,325.0,1.0,1.0,1.0
1694001868.4387848,66531140.0,337.0,327.0,1.0,1.0,1.0
1694001868.4397848,66533232.0,340.0,326.0,1.0,1.0,1.0
1694001868.4397848,66535324.0,331.0,321.0,1.0,1.0,1.0
1694001868.440785,66537416.0,331.0,328.0,1.0,1.0,1.0
1694001868.4417849,66539508.0,342.0,333.0,1.0,1.0,1.0
1694001868.4417849,66541600.0,325.0,333.0,1.0,1.0,1.0
1694001868.4427848,66543696.0,328.0,325.0,1.0,1.0,1.0
1694001868.4427848,66545788.0,349.0,324.0,1.0,1.0,1.0
1694001868.4437852,66547880.0,332.0,321.0,1.0,1.0,1.0
1694001868.4437852,66549972.0,303.0,320.0,1.0,1.0,1.0
1694001868.4447849,66552064.0,327.0,325.0,1.0,1.0,1.0
1694001868.445785,66554156.0,352.0,326.0,1.0,1.0,1.0
1694001868.445785,66556248.0,329.0,326.0,1.0,1.0,1.0
1694001868.446787,66558340.0,330.0,328.0,1.0,1.0,1.0
1694001868.446787,66560436.0,329.0,329.0,1.0,1.0,1.0
1694001868.4477851,66562528.0,323.0,330.0,1.0,1.0,1.0
1694001868.4487846,66564620.0,335.0,327.0,1.0,1.0,1.0
1694001868.4487846,66566712.0,344.0,325.0,1.0,1.0,1.0
1694001868.4497845,66568804.0,341.0,324.0,1.0,1.0,1.0
1694001868.4497845,66570896.0,334.0,324.0,1.0,1.0,1.0
1694001868.4507847,66572988.0,318.0,323.0,1.0,1.0,1.0
1694001868.4507847,66575084.0,335.0,329.0,1.0,1.0,1.0
1694001868.4517846,66577172.0,344.0,332.0,1.0,1.0,1.0
1694001868.4517846,66579264.0,345.0,337.0,1.0,1.0,1.0
1694001868.452785,66581360.0,316.0,334.0,1.0,1.0,1.0
1694001868.452785,66583452.0,312.0,320.0,1.0,1.0,1.0
1694001868.453785,66585544.0,345.0,320.0,1.0,1.0,1.0
1694001868.4547849,66587636.0,332.0,318.0,1.0,1.0,1.0
1694001868.4547849,66589728.0,325.0,324.0,1.0,1.0,1.0
1694001868.4557848,66591820.0,341.0,323.0,1.0,1.0,1.0
1694001868.4987857,66593916.0,351.0,326.0,1.0,1.0,1.0
1694001868.4993293,66596008.0,324.0,325.0,1.0,1.0,1.0
1694001868.5002985,66598100.0,305.0,330.0,1.0,1.0,1.0
1694001868.5002985,66600192.0,299.0,332.0,1.0,1.0,1.0
1694001868.5012982,66602284.0,344.0,333.0,1.0,1.0,1.0
1694001868.5022986,66604376.0,349.0,332.0,1.0,1.0,1.0
1694001868.502821,66606468.0,350.0,327.0,1.0,1.0,1.0
1694001868.502821,66608564.0,329.0,320.0,1.0,1.0,1.0
1694001868.5038092,66610652.0,325.0,319.0,1.0,1.0,1.0
1694001868.5038092,66612748.0,323.0,324.0,1.0,1.0,1.0
1694001868.504809,66614840.0,335.0,323.0,1.0,1.0,1.0
1694001868.504809,66616932.0,338.0,330.0,1.0,1.0,1.0
1694001868.5058093,66619024.0,317.0,325.0,1.0,1.0,1.0
1694001868.5058093,66621116.0,333.0,329.0,1.0,1.0,1.0
1694001868.5068088,66623208.0,329.0,332.0,1.0,1.0,1.0
1694001868.5068088,66625300.0,325.0,329.0,1.0,1.0,1.0
1694001868.507809,66627392.0,337.0,331.0,1.0,1.0,1.0
1694001868.5088105,66629488.0,338.0,321.0,1.0,1.0,1.0
1694001868.5088105,66631580.0,330.0,320.0,1.0,1.0,1.0
1694001868.5098102,66633672.0,337.0,320.0,1.0,1.0,1.0
1694001868.5098102,66635764.0,329.0,322.0,1.0,1.0,1.0
1694001868.5108104,66637856.0,338.0,325.0,1.0,1.0,1.0
1694001868.511809,66639948.0,338.0,331.0,1.0,1.0,1.0
1694001868.511809,66642040.0,312.0,332.0,1.0,1.0,1.0
1694001868.5128098,66644136.0,334.0,331.0,1.0,1.0,1.0
1694001868.5128098,66646228.0,337.0,327.0,1.0,1.0,1.0
1694001868.51381,66648320.0,321.0,322.0,1.0,1.0,1.0
1694001868.51381,66650412.0,329.0,324.0,1.0,1.0,1.0
1694001868.5148091,66652504.0,333.0,327.0,1.0,1.0,1.0
1694001868.5620723,66654596.0,336.0,324.0,1.0,0.0,1.0
1694001868.5630722,66656688.0,333.0,329.0,1.0,0.0,1.0
1694001868.5630722,66658780.0,331.0,329.0,1.0,0.0,1.0
1694001868.5640717,66660872.0,333.0,333.0,1.0,0.0,1.0
1694001868.5650733,66662964.0,326.0,329.0,1.0,0.0,1.0
1694001868.5650733,66665060.0,333.0,324.0,1.0,0.0,1.0
1694001868.5660717,66667152.0,337.0,327.0,1.0,0.0,1.0
1694001868.5670714,66669244.0,328.0,320.0,1.0,0.0,1.0
1694001868.5670714,66671336.0,331.0,322.0,1.0,0.0,1.0
1694001868.5680714,66673428.0,335.0,327.0,1.0,0.0,1.0
1694001868.5690706,66675520.0,339.0,327.0,1.0,0.0,1.0
1694001868.5690706,66677612.0,332.0,329.0,1.0,0.0,1.0
1694001868.5700717,66679708.0,310.0,326.0,1.0,0.0,1.0
1694001868.5700717,66681800.0,328.0,323.0,1.0,0.0,1.0
1694001868.5710711,66683892.0,322.0,323.0,1.0,0.0,1.0
1694001868.5710711,66685984.0,340.0,326.0,1.0,0.0,1.0
1694001868.5720718,66688076.0,331.0,325.0,1.0,0.0,1.0
1694001868.5720718,66690168.0,328.0,324.0,1.0,0.0,1.0
1694001868.5730717,66692260.0,334.0,321.0,1.0,0.0,1.0
1694001868.5730717,66694356.0,335.0,324.0,1.0,0.0,0.0
1694001868.5740714,66696448.0,338.0,330.0,1.0,0.0,0.0
1694001868.5750713,66698540.0,329.0,331.0,1.0,0.0,0.0
1694001868.5750713,66700632.0,332.0,335.0,1.0,0.0,0.0
1694001868.5760725,66702724.0,328.0,331.0,1.0,0.0,0.0
1694001868.5760725,66704816.0,332.0,328.0,1.0,0.0,0.0
1694001868.5770717,66706908.0,328.0,325.0,1.0,0.0,0.0
1694001868.578071,66709000.0,333.0,324.0,1.0,0.0,0.0
1694001868.578071,66711092.0,328.0,323.0,1.0,0.0,0.0
1694001868.5790718,66713188.0,325.0,322.0,1.0,0.0,0.0
1694001868.5790718,66715280.0,327.0,323.0,1.0,0.0,0.0
1694001868.623654,66717372.0,331.0,327.0,1.0,0.0,0.0
1694001868.624654,66719464.0,327.0,330.0,1.0,0.0,0.0
1694001868.6256583,66721556.0,325.0,332.0,1.0,0.0,0.0
1694001868.6256583,66723648.0,327.0,329.0,1.0,0.0,0.0
1694001868.6266541,66725740.0,330.0,328.0,1.0,0.0,0.0
1694001868.6276543,66727832.0,330.0,327.0,1.0,0.0,0.0
1694001868.6276543,66729928.0,333.0,328.0,1.0,0.0,0.0
1694001868.6286538,66732020.0,334.0,320.0,1.0,0.0,0.0
1694001868.6286538,66734112.0,332.0,323.0,1.0,0.0,0.0
1694001868.6296556,66736204.0,323.0,323.0,1.0,0.0,0.0
1694001868.630654,66738296.0,329.0,328.0,1.0,0.0,0.0
1694001868.630654,66740388.0,328.0,326.0,1.0,0.0,0.0
1694001868.6316538,66742484.0,331.0,333.0,1.0,0.0,0.0
1694001868.6316538,66744576.0,327.0,328.0,1.0,0.0,0.0
1694001868.6326542,66746668.0,331.0,327.0,1.0,0.0,1.0
1694001868.6326542,66748760.0,329.0,323.0,1.0,0.0,1.0
1694001868.6336546,66750852.0,331.0,325.0,1.0,0.0,1.0
1694001868.6346538,66752944.0,334.0,321.0,1.0,0.0,1.0
1694001868.6346538,66755036.0,326.0,326.0,1.0,0.0,1.0
1694001868.6356537,66757132.0,334.0,327.0,1.0,0.0,1.0
1694001868.6356537,66759220.0,337.0,330.0,1.0,0.0,1.0
1694001868.6366544,66761316.0,319.0,331.0,1.0,0.0,1.0
1694001868.6366544,66763408.0,319.0,329.0,1.0,0.0,1.0
1694001868.6376529,66765500.0,333.0,328.0,1.0,0.0,1.0
1694001868.6376529,66767592.0,325.0,328.0,1.0,0.0,1.0
1694001868.6386545,66769684.0,324.0,321.0,1.0,0.0,1.0
1694001868.6386545,66771776.0,328.0,323.0,1.0,0.0,1.0
1694001868.6396563,66773868.0,337.0,320.0,1.0,0.0,1.0
1694001868.6396563,66775960.0,333.0,326.0,1.0,0.0,1.0
1694001868.6406536,66778056.0,328.0,327.0,1.0,0.0,1.0
1694001868.68832,66780148.0,320.0,332.0,1.0,0.0,1.0
1694001868.6893206,66782240.0,338.0,333.0,1.0,0.0,1.0
1694001868.6893206,66784332.0,345.0,328.0,1.0,0.0,1.0
1694001868.69032,66786424.0,317.0,327.0,1.0,0.0,1.0
1694001868.6913207,66788516.0,312.0,324.0,1.0,0.0,1.0
1694001868.6913207,66790608.0,323.0,322.0,1.0,0.0,1.0
1694001868.692321,66792700.0,327.0,322.0,1.0,0.0,1.0
1694001868.692321,66794796.0,335.0,324.0,1.0,0.0,1.0
1694001868.6933203,66796888.0,337.0,327.0,1.0,0.0,1.0
1694001868.6933203,66798980.0,329.0,329.0,1.0,0.0,1.0
1694001868.6943226,66801072.0,331.0,332.0,1.0,0.0,1.0
1694001868.6943226,66803164.0,339.0,331.0,1.0,0.0,1.0
1694001868.6953204,66805256.0,333.0,329.0,1.0,0.0,1.0
1694001868.6953204,66807348.0,329.0,324.0,1.0,0.0,1.0
1694001868.6963208,66809440.0,311.0,325.0,1.0,0.0,1.0
1694001868.6973214,66811536.0,327.0,324.0,1.0,0.0,1.0
1694001868.6973214,66813628.0,329.0,315.0,1.0,0.0,1.0
1694001868.6983209,66815720.0,335.0,322.0,1.0,0.0,1.0
1694001868.6983209,66817812.0,344.0,331.0,1.0,0.0,1.0
1694001868.6993225,66819904.0,332.0,327.0,1.0,0.0,1.0
1694001868.6993225,66821996.0,314.0,327.0,1.0,0.0,1.0
1694001868.7003207,66824088.0,328.0,335.0,1.0,0.0,1.0
1694001868.7003207,66826180.0,311.0,330.0,1.0,0.0,1.0
1694001868.7013206,66828276.0,336.0,320.0,1.0,0.0,1.0
1694001868.7013206,66830368.0,329.0,322.0,1.0,1.0,1.0
1694001868.70232,66832460.0,329.0,318.0,1.0,1.0,1.0
1694001868.70232,66834552.0,319.0,324.0,1.0,1.0,1.0
1694001868.7033205,66836644.0,338.0,329.0,1.0,1.0,1.0
1694001868.7033205,66838736.0,340.0,331.0,1.0,1.0,1.0
1694001868.704321,66840828.0,346.0,331.0,1.0,1.0,1.0
1694001868.7053201,66842920.0,312.0,331.0,1.0,1.0,1.0
1694001868.7480264,66845016.0,316.0,328.0,1.0,1.0,1.0
1694001868.7490237,66847108.0,325.0,325.0,1.0,1.0,1.0
1694001868.7490237,66849200.0,318.0,325.0,1.0,1.0,1.0
1694001868.7500246,66851292.0,329.0,323.0,1.0,1.0,1.0
1694001868.7500246,66853384.0,336.0,322.0,1.0,1.0,1.0
1694001868.7510238,66855476.0,338.0,325.0,1.0,1.0,1.0
1694001868.7510238,66857568.0,328.0,329.0,1.0,1.0,1.0
1694001868.7520244,66859660.0,330.0,329.0,1.0,1.0,1.0
1694001868.753023,66861756.0,338.0,330.0,1.0,1.0,1.0
1694001868.753023,66863848.0,336.0,332.0,1.0,1.0,1.0
1694001868.7540238,66865940.0,319.0,324.0,1.0,1.0,1.0
1694001868.7540238,66868032.0,317.0,318.0,1.0,1.0,1.0
1694001868.755024,66870124.0,318.0,322.0,1.0,1.0,1.0
1694001868.755024,66872216.0,344.0,323.0,1.0,1.0,1.0
1694001868.756024,66874308.0,333.0,325.0,1.0,1.0,1.0
1694001868.756024,66876404.0,306.0,324.0,1.0,1.0,1.0
1694001868.7570238,66878492.0,323.0,329.0,1.0,1.0,1.0
1694001868.7570238,66880588.0,340.0,329.0,1.0,1.0,1.0
1694001868.7580252,66882680.0,334.0,333.0,1.0,1.0,1.0
1694001868.759025,66884772.0,328.0,331.0,1.0,1.0,1.0
1694001868.759025,66886864.0,343.0,327.0,1.0,1.0,1.0
1694001868.7600245,66888956.0,330.0,324.0,1.0,1.0,1.0
1694001868.7600245,66891048.0,315.0,324.0,1.0,1.0,1.0
1694001868.7610242,66893144.0,312.0,322.0,1.0,1.0,1.0
1694001868.7620234,66895236.0,337.0,324.0,1.0,1.0,1.0
1694001868.7620234,66897328.0,338.0,326.0,1.0,1.0,1.0
1694001868.7630243,66899420.0,336.0,329.0,1.0,1.0,1.0
1694001868.7630243,66901512.0,318.0,329.0,1.0,1.0,1.0
1694001868.7640238,66903604.0,314.0,330.0,1.0,1.0,1.0
1694001868.8107646,66905696.0,333.0,328.0,1.0,1.0,1.0
1694001868.8117623,66907788.0,326.0,326.0,1.0,1.0,1.0
1694001868.812762,66909880.0,319.0,325.0,1.0,1.0,1.0
1694001868.812762,66911976.0,328.0,323.0,1.0,1.0,1.0
1694001868.8137622,66914068.0,335.0,322.0,1.0,1.0,1.0
1694001868.8147624,66916160.0,343.0,321.0,1.0,1.0,1.0
1694001868.8147624,66918252.0,327.0,327.0,0.0,1.0,1.0
1694001868.8157618,66920344.0,316.0,327.0,0.0,1.0,1.0
1694001868.8167624,66922436.0,325.0,333.0,0.0,1.0,1.0
1694001868.8167624,66924528.0,337.0,331.0,0.0,1.0,1.0
1694001868.817762,66926620.0,324.0,326.0,0.0,1.0,1.0
1694001868.817762,66928716.0,325.0,324.0,0.0,1.0,1.0
1694001868.8187623,66930808.0,345.0,328.0,0.0,1.0,1.0
1694001868.819762,66932900.0,330.0,323.0,0.0,1.0,1.0
1694001868.819762,66934992.0,317.0,320.0,0.0,1.0,1.0
1694001868.8207617,66937084.0,313.0,321.0,0.0,1.0,1.0
1694001868.8207617,66939176.0,327.0,322.0,0.0,1.0,1.0
1694001868.8217623,66941268.0,331.0,328.0,0.0,1.0,1.0
1694001868.8217623,66943360.0,326.0,332.0,0.0,1.0,1.0
1694001868.822762,66945456.0,329.0,330.0,0.0,1.0,1.0
1694001868.822762,66947548.0,327.0,328.0,0.0,1.0,1.0
1694001868.823762,66949640.0,329.0,326.0,0.0,1.0,1.0
1694001868.824762,66951732.0,330.0,326.0,0.0,1.0,1.0
1694001868.824762,66953824.0,331.0,323.0,0.0,1.0,1.0
1694001868.8257618,66955916.0,327.0,324.0,0.0,1.0,1.0
1694001868.8257618,66958008.0,330.0,327.0,0.0,1.0,1.0
1694001868.8267624,66960104.0,339.0,326.0,0.0,1.0,1.0
1694001868.8267624,66962192.0,312.0,330.0,0.0,1.0,1.0
1694001868.827762,66964288.0,323.0,332.0,0.0,1.0,1.0
1694001868.8287635,66966380.0,337.0,327.0,0.0,1.0,1.0
1694001868.876787,66968472.0,333.0,330.0,0.0,1.0,1.0
1694001868.8777883,66970564.0,318.0,324.0,0.0,1.0,1.0
1694001868.8787878,66972656.0,331.0,323.0,0.0,1.0,1.0
1694001868.8787878,66974748.0,340.0,320.0,0.0,1.0,1.0
1694001868.879788,66976840.0,322.0,326.0,0.0,1.0,1.0
1694001868.8807876,66978936.0,314.0,325.0,0.0,1.0,1.0
1694001868.8807876,66981028.0,321.0,326.0,0.0,1.0,1.0
1694001868.8817883,66983120.0,324.0,330.0,0.0,1.0,1.0
1694001868.8827875,66985212.0,333.0,330.0,0.0,1.0,1.0
1694001868.8827875,66987304.0,331.0,332.0,0.0,1.0,1.0
1694001868.8837879,66989396.0,328.0,325.0,0.0,1.0,1.0
1694001868.884787,66991488.0,323.0,321.0,0.0,1.0,1.0
1694001868.884787,66993580.0,336.0,321.0,0.0,1.0,1.0
1694001868.8857882,66995672.0,334.0,326.0,0.0,1.0,1.0
1694001868.8857882,66997764.0,337.0,326.0,0.0,1.0,1.0
1694001868.8867877,66999860.0,328.0,324.0,0.0,1.0,1.0
1694001868.8867877,67001952.0,323.0,328.0,0.0,1.0,1.0
1694001868.8877883,67004044.0,320.0,334.0,0.0,1.0,1.0
1694001868.8887877,67006136.0,331.0,329.0,0.0,1.0,1.0
1694001868.8887877,67008228.0,330.0,326.0,0.0,1.0,1.0
1694001868.8897874,67010320.0,325.0,325.0,0.0,1.0,1.0
1694001868.890791,67012412.0,332.0,321.0,0.0,1.0,1.0
1694001868.890791,67014508.0,329.0,324.0,0.0,1.0,1.0
1694001868.8917875,67016600.0,328.0,325.0,0.0,1.0,1.0
1694001868.8917875,67018692.0,328.0,328.0,0.0,1.0,1.0
1694001868.8927877,67020784.0,326.0,329.0,0.0,1.0,1.0
1694001868.8927877,67022876.0,328.0,329.0,0.0,1.0,1.0
1694001868.8937879,67024968.0,333.0,328.0,0.0,0.0,1.0
1694001868.8937879,67027064.0,333.0,328.0,0.0,0.0,1.0
1694001868.8947883,67029156.0,331.0,328.0,0.0,0.0,1.0
1694001868.8947883,67031248.0,324.0,326.0,0.0,0.0,1.0
1694001868.8957877,67033340.0,311.0,320.0,0.0,0.0,1.0
1694001868.9382024,67035432.0,317.0,316.0,0.0,0.0,1.0
1694001868.9391994,67037524.0,349.0,329.0,0.0,0.0,1.0
1694001868.940207,67039616.0,316.0,328.0,0.0,0.0,1.0
1694001868.940207,67041708.0,316.0,322.0,0.0,0.0,1.0
1694001868.941201,67043800.0,335.0,332.0,0.0,0.0,1.0
1694001868.9421995,67045892.0,335.0,331.0,0.0,0.0,1.0
1694001868.9421995,67047984.0,312.0,327.0,0.0,0.0,1.0
1694001868.9432037,67050080.0,327.0,327.0,0.0,0.0,1.0
1694001868.9432037,67052172.0,352.0,323.0,0.0,0.0,1.0
1694001868.9441996,67054264.0,346.0,326.0,0.0,0.0,1.0
1694001868.9441996,67056356.0,315.0,320.0,0.0,0.0,1.0
1694001868.9451985,67058448.0,327.0,323.0,0.0,0.0,1.0
1694001868.9451985,67060540.0,323.0,327.0,0.0,0.0,1.0
1694001868.9462013,67062632.0,324.0,331.0,0.0,0.0,1.0
1694001868.9471989,67064728.0,328.0,333.0,0.0,0.0,1.0
1694001868.9471989,67066820.0,323.0,330.0,0.0,0.0,1.0
1694001868.9481995,67068912.0,335.0,324.0,0.0,0.0,1.0
1694001868.9481995,67071004.0,325.0,323.0,0.0,0.0,1.0
1694001868.9491997,67073096.0,334.0,323.0,0.0,0.0,1.0
1694001868.9491997,67075188.0,327.0,325.0,0.0,0.0,1.0
1694001868.9501994,67077280.0,333.0,327.0,0.0,0.0,1.0
1694001868.9501994,67079376.0,309.0,329.0,0.0,0.0,1.0
1694001868.9511998,67081468.0,327.0,331.0,0.0,0.0,1.0
1694001868.9511998,67083560.0,324.0,328.0,0.0,0.0,0.0
1694001868.9521997,67085652.0,331.0,322.0,0.0,0.0,0.0
1694001868.9521997,67087744.0,327.0,326.0,0.0,0.0,0.0
1694001868.9531994,67089836.0,330.0,326.0,0.0,0.0,0.0
1694001868.9541996,67091932.0,331.0,321.0,0.0,0.0,0.0
1694001868.9541996,67094020.0,328.0,323.0,0.0,0.0,0.0
1694001868.9551995,67096116.0,335.0,329.0,0.0,0.0,0.0
1694001868.9986334,67098208.0,321.0,322.0,0.0,0.0,0.0
1694001868.999647,67100300.0,326.0,330.0,0.0,0.0,0.0
1694001868.999647,67102392.0,323.0,322.0,0.0,0.0,0.0
1694001869.0006456,67104484.0,332.0,333.0,0.0,0.0,0.0
1694001869.0006456,67106576.0,317.0,331.0,0.0,0.0,0.0
1694001869.0016453,67108668.0,337.0,329.0,0.0,0.0,0.0
1694001869.0016453,67110760.0,325.0,325.0,0.0,0.0,0.0
1694001869.0026453,67112856.0,331.0,322.0,0.0,0.0,0.0
1694001869.0026453,67114948.0,336.0,324.0,0.0,0.0,0.0
1694001869.0036452,67117040.0,331.0,322.0,0.0,0.0,0.0
1694001869.0036452,67119132.0,325.0,325.0,0.0,0.0,0.0
1694001869.004645,67121224.0,321.0,326.0,0.0,0.0,0.0
1694001869.005645,67123316.0,329.0,330.0,0.0,0.0,0.0
1694001869.005645,67125408.0,330.0,332.0,0.0,0.0,0.0
1694001869.0066507,67127500.0,329.0,335.0,0.0,0.0,0.0
1694001869.007649,67129596.0,332.0,324.0,0.0,0.0,0.0
1694001869.007649,67131688.0,329.0,316.0,0.0,0.0,0.0
1694001869.0086453,67133780.0,326.0,324.0,0.0,0.0,0.0
1694001869.0086453,67135872.0,329.0,324.0,0.0,0.0,0.0
1694001869.009645,67137964.0,329.0,326.0,0.0,0.0,0.0
1694001869.0106463,67140056.0,325.0,330.0,0.0,0.0,0.0
1694001869.0106463,67142148.0,328.0,332.0,0.0,0.0,0.0
1694001869.0116448,67144240.0,327.0,331.0,0.0,0.0,0.0
1694001869.0116448,67146336.0,321.0,330.0,0.0,0.0,0.0
1694001869.012645,67148428.0,340.0,327.0,0.0,0.0,0.0
1694001869.012645,67150520.0,352.0,320.0,1.0,0.0,0.0
1694001869.0136454,67152612.0,333.0,321.0,1.0,0.0,0.0
1694001869.0136454,67154704.0,299.0,321.0,1.0,0.0,0.0
1694001869.064343,67156796.0,318.0,323.0,1.0,0.0,0.0
1694001869.0653431,67158892.0,349.0,329.0,1.0,0.0,0.0
1694001869.066343,67160980.0,329.0,330.0,1.0,0.0,0.0
1694001869.066343,67163076.0,300.0,327.0,1.0,0.0,0.0
1694001869.0673437,67165168.0,328.0,329.0,1.0,0.0,0.0
1694001869.068344,67167260.0,335.0,331.0,1.0,0.0,0.0
1694001869.068344,67169352.0,330.0,328.0,1.0,0.0,0.0
1694001869.0693433,67171444.0,336.0,326.0,1.0,0.0,0.0
1694001869.0703437,67173536.0,334.0,324.0,1.0,0.0,0.0
1694001869.0703437,67175628.0,351.0,322.0,1.0,0.0,0.0
1694001869.0713432,67177724.0,335.0,325.0,1.0,0.0,0.0
1694001869.072343,67179816.0,320.0,331.0,1.0,0.0,0.0
1694001869.072343,67181908.0,331.0,330.0,1.0,0.0,0.0
1694001869.0733442,67184000.0,327.0,332.0,1.0,0.0,0.0
1694001869.0733442,67186092.0,298.0,322.0,1.0,0.0,0.0
1694001869.074343,67188184.0,334.0,328.0,1.0,0.0,0.0
1694001869.074343,67190276.0,332.0,321.0,1.0,0.0,0.0
1694001869.0753434,67192368.0,326.0,327.0,1.0,0.0,0.0
1694001869.076344,67194460.0,329.0,329.0,1.0,0.0,0.0
1694001869.076344,67196556.0,356.0,321.0,1.0,0.0,0.0
1694001869.0773435,67198648.0,356.0,320.0,1.0,0.0,0.0
1694001869.0773435,67200740.0,319.0,326.0,1.0,0.0,0.0
1694001869.0783434,67202832.0,301.0,329.0,1.0,0.0,0.0
1694001869.0783434,67204924.0,314.0,329.0,1.0,0.0,0.0
1694001869.0793428,67207016.0,328.0,330.0,1.0,0.0,0.0
1694001869.0793428,67209108.0,308.0,329.0,1.0,0.0,0.0
1694001869.0803437,67211200.0,332.0,330.0,1.0,0.0,0.0
1694001869.0803437,67213292.0,364.0,323.0,1.0,0.0,0.0
1694001869.081343,67215388.0,334.0,316.0,1.0,0.0,0.0
1694001869.0823429,67217480.0,325.0,323.0,1.0,0.0,0.0
1694001869.0823429,67219572.0,316.0,327.0,1.0,0.0,0.0
1694001869.0833433,67221664.0,317.0,329.0,1.0,0.0,0.0
1694001869.123434,67223756.0,330.0,328.0,1.0,0.0,0.0
1694001869.124432,67225848.0,342.0,330.0,1.0,0.0,0.0
1694001869.124432,67227940.0,337.0,328.0,1.0,0.0,0.0
1694001869.1254337,67230036.0,339.0,328.0,1.0,0.0,0.0
1694001869.1254337,67232128.0,318.0,326.0,1.0,0.0,0.0
1694001869.1264331,67234220.0,339.0,324.0,1.0,0.0,0.0
1694001869.1274338,67236312.0,301.0,324.0,1.0,0.0,0.0
1694001869.1274338,67238404.0,354.0,323.0,1.0,0.0,0.0
1694001869.128433,67240496.0,293.0,325.0,1.0,0.0,0.0
1694001869.128433,67242588.0,302.0,323.0,1.0,0.0,0.0
1694001869.1294312,67244684.0,332.0,334.0,1.0,0.0,0.0
1694001869.1294312,67246776.0,336.0,333.0,1.0,0.0,0.0
1694001869.1304328,67248868.0,347.0,330.0,1.0,0.0,0.0
1694001869.1304328,67250960.0,339.0,323.0,1.0,0.0,0.0
1694001869.131431,67253052.0,323.0,323.0,1.0,0.0,0.0
1694001869.131431,67255144.0,343.0,322.0,1.0,0.0,0.0
1694001869.132433,67257236.0,337.0,320.0,1.0,0.0,0.0
1694001869.1334321,67259328.0,319.0,324.0,1.0,0.0,0.0
1694001869.1334321,67261420.0,318.0,330.0,1.0,0.0,0.0
1694001869.1344326,67263516.0,309.0,327.0,1.0,0.0,0.0
1694001869.1344326,67265608.0,333.0,329.0,1.0,0.0,0.0
1694001869.135432,67267700.0,330.0,331.0,1.0,0.0,0.0
1694001869.135432,67269792.0,334.0,329.0,1.0,0.0,0.0
1694001869.1364324,67271884.0,328.0,324.0,1.0,0.0,0.0
1694001869.1364324,67273976.0,329.0,330.0,0.0,0.0,0.0
1694001869.1374323,67276068.0,321.0,325.0,0.0,0.0,0.0
1694001869.1374323,67278160.0,325.0,311.0,0.0,0.0,0.0
1694001869.1384323,67280256.0,339.0,326.0,0.0,0.0,0.0
1694001869.1870244,67282348.0,322.0,327.0,0.0,0.0,0.0
1694001869.188025,67284440.0,327.0,330.0,0.0,0.0,0.0
1694001869.188025,67286532.0,325.0,332.0,0.0,0.0,0.0
1694001869.1890252,67288624.0,336.0,331.0,0.0,0.0,0.0
1694001869.1890252,67290716.0,329.0,328.0,0.0,0.0,0.0
1694001869.190026,67292808.0,337.0,324.0,0.0,0.0,0.0
1694001869.1910255,67294900.0,335.0,323.0,0.0,0.0,0.0
1694001869.1910255,67296996.0,315.0,322.0,0.0,0.0,0.0
1694001869.192026,67299088.0,318.0,324.0,0.0,0.0,0.0
1694001869.192026,67301180.0,308.0,328.0,0.0,0.0,0.0
1694001869.1930258,67303272.0,331.0,330.0,0.0,0.0,0.0
1694001869.1930258,67305364.0,328.0,330.0,0.0,0.0,0.0
1694001869.1940255,67307456.0,335.0,329.0,0.0,0.0,0.0
1694001869.1940255,67309552.0,325.0,325.0,0.0,0.0,0.0
1694001869.1950254,67311644.0,319.0,324.0,0.0,0.0,0.0
1694001869.1950254,67313732.0,329.0,326.0,0.0,0.0,0.0
1694001869.1960247,67315828.0,329.0,325.0,0.0,0.0,0.0
1694001869.1970289,67317920.0,330.0,322.0,0.0,0.0,0.0
1694001869.1970289,67320012.0,335.0,325.0,0.0,0.0,0.0
1694001869.1980264,67322104.0,321.0,329.0,0.0,0.0,0.0
1694001869.1980264,67324196.0,322.0,331.0,0.0,0.0,0.0
1694001869.1990254,67326288.0,327.0,331.0,0.0,0.0,0.0
1694001869.1990254,67328384.0,326.0,330.0,0.0,0.0,0.0
1694001869.2000253,67330476.0,325.0,326.0,0.0,0.0,0.0
1694001869.2000253,67332564.0,332.0,324.0,0.0,0.0,0.0
1694001869.201026,67334660.0,331.0,325.0,0.0,0.0,0.0
1694001869.2020252,67336752.0,327.0,321.0,0.0,0.0,0.0
1694001869.2020252,67338844.0,327.0,322.0,0.0,0.0,0.0
1694001869.2030253,67340936.0,331.0,324.0,0.0,0.0,0.0
1694001869.2030253,67343028.0,329.0,328.0,0.0,0.0,0.0
1694001869.2040255,67345120.0,332.0,329.0,0.0,0.0,0.0
1694001869.2518473,67347212.0,344.0,334.0,0.0,0.0,0.0
1694001869.2528472,67349308.0,289.0,332.0,0.0,0.0,0.0
1694001869.2528472,67351400.0,320.0,325.0,0.0,0.0,0.0
1694001869.2538474,67353492.0,343.0,323.0,0.0,0.0,0.0
1694001869.2548573,67355584.0,336.0,315.0,0.0,0.0,0.0
1694001869.2558544,67357676.0,315.0,321.0,0.0,0.0,0.0
1694001869.2558544,67359772.0,327.0,325.0,0.0,0.0,0.0
1694001869.2568476,67361860.0,329.0,330.0,0.0,0.0,0.0
1694001869.2578478,67363956.0,326.0,333.0,0.0,0.0,0.0
1694001869.2578478,67366048.0,329.0,335.0,0.0,0.0,0.0
1694001869.2588477,67368140.0,326.0,331.0,0.0,0.0,0.0
1694001869.2598474,67370232.0,331.0,329.0,0.0,0.0,0.0
1694001869.2598474,67372324.0,340.0,325.0,0.0,0.0,0.0
1694001869.2608469,67374416.0,316.0,313.0,0.0,0.0,0.0
1694001869.2608469,67376508.0,315.0,319.0,0.0,0.0,0.0
1694001869.2618473,67378604.0,340.0,324.0,0.0,0.0,0.0
1694001869.2618473,67380692.0,335.0,329.0,0.0,0.0,0.0
1694001869.2628472,67382784.0,320.0,335.0,0.0,0.0,0.0
1694001869.2628472,67384880.0,318.0,335.0,0.0,0.0,0.0
1694001869.2638476,67386972.0,333.0,323.0,0.0,0.0,0.0
1694001869.2648468,67389064.0,329.0,310.0,0.0,0.0,0.0
1694001869.2648468,67391156.0,329.0,321.0,0.0,0.0,0.0
1694001869.2658472,67393248.0,329.0,330.0,0.0,0.0,0.0
1694001869.2658472,67395340.0,328.0,328.0,0.0,0.0,0.0
1694001869.2668467,67397432.0,330.0,327.0,0.0,0.0,0.0
1694001869.2668467,67399528.0,335.0,326.0,0.0,0.0,0.0
1694001869.267847,67401620.0,336.0,329.0,0.0,0.0,0.0
1694001869.267847,67403712.0,322.0,333.0,0.0,0.0,0.0
1694001869.2688475,67405804.0,319.0,325.0,0.0,0.0,0.0
1694001869.2688475,67407900.0,324.0,322.0,0.0,0.0,0.0
1694001869.2698474,67409988.0,336.0,326.0,0.0,0.0,0.0
1694001869.3142977,67412080.0,303.0,323.0,0.0,0.0,0.0
1694001869.3152976,67414176.0,326.0,329.0,0.0,0.0,0.0
1694001869.3152976,67416268.0,330.0,322.0,0.0,0.0,0.0
1694001869.3162975,67418360.0,335.0,322.0,0.0,0.0,0.0
1694001869.317298,67420452.0,331.0,329.0,0.0,0.0,0.0
1694001869.317298,67422544.0,328.0,329.0,0.0,0.0,0.0
1694001869.3182986,67424636.0,332.0,331.0,0.0,0.0,0.0
1694001869.3192983,67426728.0,327.0,331.0,0.0,0.0,0.0
1694001869.3192983,67428820.0,329.0,328.0,0.0,0.0,0.0
1694001869.3202987,67430912.0,333.0,331.0,0.0,0.0,0.0
1694001869.3202987,67433004.0,331.0,325.0,0.0,0.0,0.0
1694001869.3212986,67435100.0,324.0,324.0,0.0,0.0,0.0
1694001869.3212986,67437192.0,335.0,322.0,0.0,0.0,0.0
1694001869.3222988,67439284.0,326.0,323.0,0.0,0.0,0.0
1694001869.3222988,67441376.0,311.0,320.0,0.0,0.0,0.0
1694001869.323298,67443468.0,331.0,328.0,0.0,0.0,0.0
1694001869.323298,67445560.0,328.0,330.0,0.0,0.0,0.0
1694001869.3242974,67447652.0,322.0,326.0,0.0,0.0,0.0
1694001869.3242974,67449748.0,330.0,329.0,0.0,0.0,0.0
1694001869.3252978,67451840.0,336.0,326.0,0.0,0.0,0.0
1694001869.3262975,67453932.0,331.0,325.0,0.0,0.0,0.0
1694001869.3262975,67456028.0,320.0,324.0,0.0,0.0,0.0
1694001869.3272972,67458116.0,329.0,324.0,0.0,0.0,0.0
1694001869.3272972,67460208.0,330.0,325.0,0.0,0.0,0.0
1694001869.3282976,67462300.0,327.0,327.0,0.0,0.0,0.0
1694001869.3282976,67464396.0,324.0,329.0,0.0,0.0,0.0
1694001869.3292973,67466488.0,333.0,331.0,0.0,0.0,0.0
1694001869.3292973,67468580.0,327.0,332.0,0.0,0.0,0.0
1694001869.3302977,67470672.0,327.0,327.0,1.0,0.0,0.0
1694001869.3302977,67472764.0,327.0,325.0,1.0,0.0,0.0
1694001869.3741202,67474856.0,331.0,322.0,1.0,0.0,0.0
1694001869.3751194,67476948.0,318.0,322.0,1.0,0.0,0.0
1694001869.3751194,67479040.0,341.0,325.0,1.0,0.0,0.0
1694001869.3761199,67481132.0,330.0,321.0,1.0,0.0,0.0
1694001869.3771195,67483228.0,301.0,326.0,1.0,0.0,0.0
1694001869.3771195,67485320.0,325.0,331.0,1.0,0.0,0.0
1694001869.37812,67487412.0,330.0,329.0,1.0,0.0,0.0
1694001869.37912,67489504.0,330.0,331.0,1.0,0.0,0.0
1694001869.37912,67491596.0,330.0,328.0,1.0,0.0,0.0
1694001869.38012,67493688.0,331.0,326.0,1.0,0.0,0.0
1694001869.38012,67495780.0,330.0,324.0,1.0,0.0,0.0
1694001869.3811202,67497876.0,330.0,323.0,1.0,0.0,0.0
1694001869.3811202,67499964.0,330.0,324.0,1.0,0.0,0.0
1694001869.3821197,67502060.0,310.0,327.0,1.0,0.0,0.0
1694001869.3821197,67504156.0,340.0,326.0,1.0,0.0,0.0
1694001869.3831196,67506244.0,329.0,328.0,1.0,0.0,0.0
1694001869.3831196,67508336.0,325.0,329.0,1.0,0.0,0.0
1694001869.3841197,67510428.0,325.0,331.0,1.0,0.0,0.0
1694001869.3851194,67512520.0,332.0,325.0,1.0,0.0,0.0
1694001869.3851194,67514616.0,329.0,323.0,1.0,0.0,0.0
1694001869.3861194,67516708.0,330.0,324.0,1.0,0.0,0.0
1694001869.3861194,67518800.0,327.0,323.0,1.0,0.0,0.0
1694001869.3871214,67520892.0,328.0,324.0,1.0,0.0,0.0
1694001869.3881207,67522984.0,335.0,326.0,1.0,0.0,0.0
1694001869.3881207,67525076.0,329.0,329.0,1.0,0.0,0.0
1694001869.3891215,67527168.0,327.0,332.0,1.0,0.0,0.0
1694001869.3891215,67529260.0,323.0,330.0,1.0,0.0,0.0
1694001869.3901215,67531356.0,327.0,330.0,1.0,0.0,0.0
1694001869.3911204,67533448.0,323.0,327.0,1.0,0.0,0.0
1694001869.4369886,67535540.0,328.0,318.0,1.0,0.0,0.0
1694001869.4379876,67537632.0,326.0,321.0,1.0,0.0,0.0
1694001869.4379876,67539724.0,337.0,325.0,1.0,0.0,0.0
1694001869.4389875,67541816.0,329.0,325.0,1.0,0.0,0.0
1694001869.439989,67543908.0,320.0,324.0,1.0,0.0,0.0
1694001869.439989,67546004.0,328.0,327.0,1.0,0.0,0.0
1694001869.4409869,67548096.0,328.0,330.0,1.0,0.0,0.0
1694001869.4409869,67550184.0,328.0,331.0,1.0,0.0,0.0
1694001869.4419866,67552284.0,329.0,327.0,1.0,0.0,0.0
1694001869.4419866,67554372.0,327.0,325.0,1.0,0.0,0.0
1694001869.442987,67556464.0,331.0,325.0,1.0,0.0,0.0
1694001869.4439867,67558556.0,325.0,321.0,1.0,0.0,0.0
1694001869.4439867,67560648.0,326.0,324.0,1.0,0.0,0.0
1694001869.4449866,67562740.0,325.0,325.0,1.0,0.0,0.0
1694001869.4449866,67564836.0,328.0,323.0,1.0,0.0,0.0
1694001869.445987,67566928.0,327.0,331.0,1.0,0.0,0.0
1694001869.446987,67569020.0,328.0,332.0,1.0,0.0,0.0
1694001869.446987,67571112.0,327.0,330.0,1.0,0.0,0.0
1694001869.4479866,67573204.0,328.0,327.0,1.0,1.0,0.0
1694001869.4489863,67575296.0,329.0,323.0,1.0,1.0,0.0
1694001869.4489863,67577388.0,329.0,322.0,1.0,1.0,0.0
1694001869.4499872,67579480.0,327.0,322.0,1.0,1.0,0.0
1694001869.4499872,67581576.0,327.0,324.0,1.0,1.0,0.0
1694001869.450987,67583668.0,328.0,327.0,1.0,1.0,0.0
1694001869.450987,67585760.0,326.0,331.0,1.0,1.0,0.0
1694001869.4519863,67587852.0,325.0,330.0,1.0,1.0,0.0
1694001869.4519863,67589944.0,327.0,329.0,1.0,1.0,0.0
1694001869.452987,67592036.0,330.0,327.0,1.0,1.0,0.0
1694001869.4539876,67594128.0,330.0,325.0,1.0,1.0,0.0
1694001869.4549875,67596220.0,330.0,325.0,1.0,1.0,0.0
1694001869.5003233,67598312.0,330.0,325.0,1.0,1.0,0.0
1694001869.501323,67600412.0,333.0,324.0,1.0,1.0,0.0
1694001869.501323,67602500.0,321.0,321.0,1.0,1.0,0.0
1694001869.5023234,67604592.0,324.0,323.0,1.0,1.0,0.0
1694001869.5023234,67606684.0,326.0,331.0,1.0,1.0,0.0
1694001869.5033243,67608776.0,330.0,333.0,1.0,1.0,0.0
1694001869.5033243,67610868.0,336.0,332.0,1.0,1.0,0.0
1694001869.5043242,67612960.0,328.0,329.0,1.0,1.0,0.0
1694001869.505327,67615056.0,321.0,322.0,1.0,1.0,0.0
1694001869.505327,67617148.0,324.0,321.0,1.0,1.0,0.0
1694001869.5063238,67619240.0,329.0,320.0,1.0,1.0,0.0
1694001869.5063238,67621332.0,328.0,326.0,1.0,1.0,0.0
1694001869.507323,67623424.0,333.0,326.0,1.0,1.0,0.0
1694001869.507323,67625516.0,326.0,328.0,1.0,1.0,0.0
1694001869.5083227,67627608.0,329.0,331.0,1.0,1.0,0.0
1694001869.5083227,67629700.0,333.0,329.0,1.0,1.0,0.0
1694001869.5093236,67631796.0,330.0,328.0,1.0,1.0,0.0
1694001869.5093236,67633888.0,316.0,324.0,1.0,1.0,0.0
1694001869.510322,67635980.0,325.0,324.0,1.0,1.0,0.0
1694001869.5113235,67638072.0,330.0,322.0,1.0,1.0,0.0
1694001869.5113235,67640164.0,334.0,326.0,1.0,1.0,0.0
1694001869.512329,67642256.0,326.0,321.0,1.0,1.0,0.0
1694001869.512329,67644348.0,322.0,326.0,1.0,1.0,0.0
1694001869.5133297,67646440.0,324.0,331.0,1.0,1.0,0.0
1694001869.5133297,67648540.0,333.0,331.0,1.0,1.0,0.0
1694001869.5143244,67650624.0,333.0,330.0,1.0,1.0,0.0
1694001869.5153232,67652720.0,328.0,326.0,1.0,1.0,0.0
1694001869.5153232,67654812.0,321.0,326.0,1.0,1.0,0.0
1694001869.516323,67656904.0,331.0,326.0,1.0,1.0,0.0
1694001869.516323,67658996.0,333.0,324.0,1.0,1.0,0.0
1694001869.5173235,67661088.0,321.0,319.0,1.0,1.0,0.0
1694001869.5628107,67663184.0,316.0,322.0,1.0,1.0,0.0
1694001869.5638103,67665276.0,326.0,329.0,1.0,1.0,0.0
1694001869.5638103,67667368.0,330.0,330.0,1.0,1.0,0.0
1694001869.5648093,67669460.0,330.0,333.0,1.0,1.0,0.0
1694001869.5648093,67671552.0,327.0,330.0,1.0,1.0,0.0
1694001869.5658107,67673644.0,331.0,328.0,1.0,1.0,0.0
1694001869.5668097,67675736.0,337.0,324.0,1.0,1.0,0.0
1694001869.5668097,67677828.0,348.0,321.0,1.0,1.0,0.0
1694001869.5678103,67679920.0,321.0,323.0,1.0,1.0,0.0
1694001869.5678103,67682016.0,300.0,321.0,1.0,1.0,0.0
1694001869.5688105,67684108.0,319.0,326.0,1.0,1.0,0.0
1694001869.5688105,67686200.0,333.0,330.0,1.0,1.0,0.0
1694001869.5698106,67688292.0,324.0,331.0,1.0,1.0,0.0
1694001869.57081,67690384.0,337.0,331.0,1.0,1.0,0.0
1694001869.57081,67692476.0,341.0,329.0,1.0,1.0,0.0
1694001869.5718105,67694568.0,329.0,324.0,1.0,1.0,0.0
1694001869.5718105,67696668.0,338.0,324.0,1.0,1.0,0.0
1694001869.5728104,67698756.0,341.0,324.0,1.0,1.0,0.0
1694001869.5728104,67700848.0,321.0,324.0,1.0,1.0,0.0
1694001869.5738091,67702940.0,299.0,324.0,1.0,1.0,0.0
1694001869.5748096,67705032.0,323.0,323.0,1.0,1.0,0.0
1694001869.5748096,67707124.0,334.0,325.0,1.0,1.0,0.0
1694001869.5758095,67709216.0,332.0,332.0,1.0,1.0,0.0
1694001869.5758095,67711308.0,340.0,332.0,1.0,1.0,0.0
1694001869.5768101,67713404.0,345.0,329.0,1.0,1.0,0.0
1694001869.5768101,67715496.0,335.0,326.0,1.0,1.0,0.0
1694001869.5778124,67717588.0,306.0,321.0,1.0,1.0,0.0
1694001869.5788105,67719680.0,321.0,321.0,1.0,1.0,0.0
1694001869.5788105,67721772.0,332.0,321.0,1.0,1.0,0.0
1694001869.5798104,67723864.0,345.0,326.0,1.0,1.0,0.0
1694001869.6271267,67725956.0,309.0,326.0,1.0,1.0,0.0
1694001869.6281269,67728048.0,309.0,329.0,1.0,1.0,0.0
1694001869.6291275,67730140.0,331.0,337.0,1.0,1.0,0.0
1694001869.6291275,67732232.0,356.0,332.0,1.0,1.0,0.0
1694001869.6301277,67734328.0,336.0,323.0,1.0,1.0,0.0
1694001869.631127,67736420.0,300.0,322.0,1.0,1.0,0.0
1694001869.631127,67738512.0,335.0,323.0,1.0,1.0,0.0
1694001869.6321273,67740604.0,345.0,321.0,1.0,1.0,0.0
1694001869.633127,67742696.0,341.0,320.0,1.0,1.0,0.0
1694001869.633127,67744796.0,323.0,328.0,1.0,1.0,0.0
1694001869.6341274,67746880.0,316.0,329.0,1.0,1.0,0.0
1694001869.6341274,67748976.0,334.0,332.0,1.0,1.0,0.0
1694001869.6351264,67751068.0,328.0,326.0,1.0,1.0,0.0
1694001869.6361284,67753160.0,322.0,326.0,1.0,1.0,0.0
1694001869.6361284,67755252.0,316.0,325.0,1.0,1.0,0.0
1694001869.6371274,67757344.0,321.0,325.0,1.0,1.0,0.0
1694001869.6371274,67759436.0,341.0,327.0,1.0,1.0,0.0
1694001869.638128,67761528.0,337.0,322.0,1.0,1.0,0.0
1694001869.638128,67763624.0,328.0,323.0,1.0,1.0,0.0
1694001869.6391268,67765716.0,337.0,325.0,1.0,1.0,0.0
1694001869.6391268,67767804.0,329.0,330.0,1.0,1.0,0.0
1694001869.640127,67769900.0,295.0,331.0,1.0,1.0,0.0
1694001869.6411266,67771992.0,336.0,331.0,0.0,1.0,1.0
1694001869.6411266,67774084.0,319.0,326.0,0.0,1.0,1.0
1694001869.642127,67776176.0,336.0,325.0,0.0,1.0,1.0
1694001869.642127,67778268.0,328.0,323.0,0.0,1.0,1.0
1694001869.643127,67780360.0,317.0,323.0,0.0,1.0,1.0
1694001869.643127,67782452.0,336.0,323.0,0.0,1.0,1.0
1694001869.6441267,67784548.0,335.0,324.0,0.0,1.0,1.0
1694001869.6441267,67786640.0,334.0,329.0,0.0,1.0,1.0
1694001869.6451268,67788732.0,304.0,332.0,0.0,1.0,1.0
1694001869.6878366,67790824.0,334.0,333.0,0.0,1.0,1.0
1694001869.688835,67792924.0,343.0,325.0,0.0,1.0,1.0
1694001869.688835,67795008.0,324.0,323.0,0.0,1.0,1.0
1694001869.6898339,67797104.0,325.0,326.0,0.0,1.0,1.0
1694001869.6908355,67799196.0,331.0,325.0,0.0,1.0,1.0
1694001869.6908355,67801288.0,324.0,320.0,0.0,1.0,1.0
1694001869.691834,67803380.0,338.0,321.0,0.0,1.0,1.0
1694001869.6928334,67805472.0,308.0,328.0,0.0,1.0,1.0
1694001869.6928334,67807564.0,305.0,329.0,0.0,1.0,1.0
1694001869.693834,67809656.0,341.0,332.0,0.0,1.0,1.0
1694001869.693834,67811748.0,334.0,332.0,0.0,1.0,1.0
1694001869.6948338,67813840.0,333.0,323.0,0.0,1.0,1.0
1694001869.6948338,67815932.0,314.0,326.0,0.0,1.0,1.0
1694001869.695834,67818028.0,325.0,325.0,0.0,1.0,1.0
1694001869.695834,67820120.0,343.0,321.0,0.0,0.0,1.0
1694001869.6968343,67822212.0,342.0,322.0,0.0,0.0,1.0
1694001869.6978335,67824304.0,309.0,326.0,0.0,0.0,1.0
1694001869.6978335,67826396.0,314.0,330.0,0.0,0.0,1.0
1694001869.6988342,67828488.0,313.0,328.0,0.0,0.0,1.0
1694001869.6988342,67830580.0,333.0,333.0,0.0,0.0,1.0
1694001869.6998343,67832672.0,325.0,327.0,0.0,0.0,1.0
1694001869.6998343,67834768.0,340.0,327.0,0.0,0.0,1.0
1694001869.7008336,67836860.0,315.0,325.0,0.0,0.0,1.0
1694001869.7008336,67838952.0,338.0,323.0,0.0,0.0,1.0
1694001869.7018347,67841052.0,332.0,321.0,0.0,0.0,1.0
1694001869.7028344,67843136.0,333.0,325.0,0.0,0.0,1.0
1694001869.7028344,67845228.0,335.0,329.0,0.0,0.0,1.0
1694001869.7038338,67847324.0,326.0,327.0,0.0,0.0,1.0
1694001869.7038338,67849416.0,319.0,330.0,0.0,0.0,1.0
1694001869.7500222,67851508.0,349.0,327.0,0.0,0.0,1.0
1694001869.7510254,67853600.0,328.0,327.0,0.0,0.0,1.0
1694001869.7520247,67855692.0,282.0,326.0,0.0,0.0,1.0
1694001869.7530234,67857784.0,309.0,324.0,0.0,0.0,1.0
1694001869.7530234,67859876.0,342.0,323.0,0.0,0.0,1.0
1694001869.7540233,67861968.0,338.0,320.0,0.0,0.0,1.0
1694001869.755026,67864064.0,344.0,325.0,0.0,0.0,1.0
1694001869.755026,67866152.0,312.0,329.0,0.0,0.0,1.0
1694001869.7560234,67868248.0,320.0,327.0,0.0,0.0,1.0
1694001869.7560234,67870340.0,327.0,330.0,0.0,0.0,1.0
1694001869.7570233,67872432.0,337.0,329.0,0.0,0.0,1.0
1694001869.758022,67874524.0,347.0,327.0,0.0,0.0,1.0
1694001869.758022,67876616.0,326.0,326.0,0.0,0.0,1.0
1694001869.7590234,67878708.0,326.0,323.0,0.0,0.0,1.0
1694001869.7590234,67880800.0,323.0,321.0,0.0,0.0,1.0
1694001869.7600226,67882892.0,323.0,322.0,0.0,0.0,1.0
1694001869.7600226,67884988.0,324.0,325.0,0.0,0.0,1.0
1694001869.7610233,67887080.0,328.0,329.0,0.0,0.0,1.0
1694001869.7610233,67889180.0,322.0,331.0,0.0,0.0,1.0
1694001869.7620232,67891264.0,329.0,331.0,0.0,0.0,1.0
1694001869.7620232,67893356.0,317.0,329.0,0.0,0.0,1.0
1694001869.7630231,67895448.0,332.0,326.0,0.0,0.0,1.0
1694001869.7640233,67897540.0,344.0,325.0,0.0,0.0,1.0
1694001869.7640233,67899636.0,325.0,323.0,0.0,0.0,1.0
1694001869.7650228,67901728.0,315.0,321.0,0.0,0.0,1.0
1694001869.7650228,67903820.0,336.0,322.0,0.0,0.0,1.0
1694001869.7660224,67905912.0,317.0,328.0,0.0,0.0,1.0
1694001869.7660224,67908004.0,322.0,330.0,0.0,0.0,1.0
1694001869.7670481,67910096.0,334.0,333.0,0.0,0.0,1.0
1694001869.7680283,67912188.0,330.0,331.0,0.0,0.0,0.0
1694001869.8161669,67914280.0,328.0,324.0,0.0,0.0,0.0
1694001869.8171668,67916376.0,327.0,326.0,0.0,0.0,0.0
1694001869.8181672,67918468.0,320.0,327.0,0.0,0.0,0.0
1694001869.8181672,67920560.0,334.0,319.0,0.0,0.0,0.0
1694001869.8191707,67922652.0,337.0,318.0,0.0,0.0,0.0
1694001869.8201668,67924744.0,327.0,326.0,0.0,0.0,0.0
1694001869.8201668,67926836.0,328.0,328.0,0.0,0.0,0.0
1694001869.8211677,67928928.0,322.0,330.0,0.0,0.0,0.0
1694001869.8221676,67931024.0,323.0,326.0,0.0,0.0,0.0
1694001869.8221676,67933116.0,329.0,331.0,0.0,0.0,0.0
1694001869.823167,67935208.0,330.0,329.0,0.0,0.0,0.0
1694001869.8241673,67937308.0,321.0,326.0,0.0,0.0,0.0
1694001869.8241673,67939392.0,335.0,327.0,0.0,0.0,0.0
1694001869.8251667,67941484.0,333.0,324.0,0.0,0.0,0.0
1694001869.8251667,67943576.0,335.0,323.0,0.0,0.0,0.0
1694001869.8261662,67945668.0,320.0,324.0,0.0,0.0,0.0
1694001869.8261662,67947764.0,313.0,328.0,0.0,0.0,0.0
1694001869.8271668,67949856.0,322.0,328.0,0.0,0.0,0.0
1694001869.8281665,67951948.0,342.0,329.0,0.0,0.0,0.0
1694001869.8281665,67954040.0,322.0,327.0,0.0,0.0,0.0
1694001869.829167,67956132.0,327.0,327.0,0.0,0.0,0.0
1694001869.829167,67958224.0,333.0,325.0,0.0,0.0,0.0
1694001869.8301673,67960316.0,336.0,322.0,0.0,0.0,0.0
1694001869.8301673,67962408.0,325.0,322.0,0.0,0.0,0.0
1694001869.8311667,67964500.0,320.0,324.0,0.0,0.0,0.0
1694001869.8311667,67966596.0,325.0,328.0,0.0,0.0,0.0
1694001869.8321664,67968688.0,328.0,329.0,0.0,0.0,0.0
1694001869.833167,67970780.0,337.0,331.0,0.0,0.0,0.0
1694001869.833167,67972872.0,328.0,331.0,0.0,0.0,0.0
1694001869.8341665,67974964.0,310.0,327.0,0.0,0.0,0.0
1694001869.8341665,67977056.0,322.0,325.0,0.0,0.0,0.0
1694001869.8351674,67979148.0,325.0,324.0,0.0,0.0,0.0
1694001869.8754601,67981240.0,332.0,322.0,0.0,0.0,0.0
1694001869.8764746,67983336.0,328.0,324.0,0.0,0.0,0.0
1694001869.8764746,67985436.0,324.0,326.0,0.0,0.0,0.0
1694001869.877473,67987520.0,327.0,326.0,0.0,0.0,0.0
1694001869.8784745,67989612.0,328.0,327.0,0.0,0.0,0.0
1694001869.8784745,67991704.0,327.0,328.0,0.0,0.0,0.0
1694001869.879473,67993796.0,331.0,330.0,0.0,0.0,0.0
1694001869.879473,67995888.0,329.0,326.0,0.0,0.0,0.0
1694001869.8804727,67997980.0,329.0,329.0,0.0,0.0,0.0
1694001869.8814723,68000076.0,328.0,325.0,0.0,0.0,0.0
1694001869.8814723,68002168.0,326.0,322.0,0.0,0.0,0.0
1694001869.8824725,68004260.0,329.0,323.0,0.0,0.0,0.0
1694001869.8824725,68006352.0,328.0,324.0,0.0,0.0,0.0
1694001869.8834724,68008444.0,326.0,327.0,0.0,0.0,0.0
1694001869.8844738,68010536.0,326.0,332.0,0.0,0.0,0.0
1694001869.8844738,68012628.0,328.0,332.0,0.0,0.0,0.0
1694001869.8854735,68014720.0,328.0,329.0,0.0,0.0,0.0
1694001869.8854735,68016816.0,329.0,319.0,0.0,0.0,0.0
1694001869.8864727,68018908.0,326.0,320.0,0.0,0.0,0.0
1694001869.8864727,68021000.0,331.0,322.0,0.0,0.0,0.0
1694001869.8874729,68023092.0,321.0,321.0,0.0,0.0,0.0
1694001869.888473,68025184.0,323.0,328.0,0.0,0.0,0.0
1694001869.888473,68027276.0,333.0,330.0,0.0,0.0,0.0
1694001869.8894727,68029368.0,336.0,328.0,0.0,0.0,0.0
1694001869.8894727,68031464.0,321.0,333.0,0.0,0.0,0.0
1694001869.8904724,68033560.0,338.0,331.0,0.0,0.0,0.0
1694001869.8914726,68035648.0,314.0,329.0,0.0,0.0,0.0
1694001869.8914726,68037740.0,328.0,324.0,0.0,0.0,0.0
1694001869.8924725,68039832.0,330.0,314.0,0.0,0.0,0.0
1694001869.9373047,68041924.0,329.0,320.0,0.0,0.0,0.0
1694001869.9383056,68044016.0,328.0,328.0,0.0,0.0,0.0
1694001869.9383056,68046108.0,328.0,326.0,0.0,0.0,0.0
1694001869.939306,68048204.0,326.0,327.0,0.0,0.0,0.0
1694001869.9403043,68050296.0,329.0,331.0,0.0,0.0,0.0
1694001869.9413047,68052388.0,328.0,331.0,0.0,0.0,0.0
1694001869.9413047,68054480.0,329.0,328.0,0.0,0.0,0.0
1694001869.9423044,68056572.0,330.0,327.0,0.0,0.0,0.0
1694001869.9423044,68058664.0,323.0,324.0,0.0,0.0,0.0
1694001869.9433048,68060756.0,328.0,324.0,0.0,0.0,0.0
1694001869.9433048,68062848.0,329.0,325.0,0.0,0.0,0.0
1694001869.9443042,68064940.0,330.0,326.0,0.0,0.0,0.0
1694001869.9443042,68067036.0,326.0,325.0,0.0,0.0,0.0
1694001869.9453044,68069124.0,328.0,325.0,0.0,0.0,0.0
1694001869.9463055,68071220.0,327.0,331.0,0.0,0.0,0.0
1694001869.9463055,68073312.0,325.0,331.0,0.0,0.0,0.0
1694001869.9473047,68075404.0,329.0,327.0,1.0,0.0,0.0
1694001869.9473047,68077496.0,330.0,326.0,1.0,0.0,0.0
1694001869.9483056,68079588.0,327.0,323.0,1.0,0.0,0.0
1694001869.9483056,68081688.0,329.0,323.0,1.0,0.0,0.0
1694001869.949304,68083776.0,331.0,324.0,1.0,0.0,0.0
1694001869.949304,68085868.0,331.0,327.0,1.0,0.0,0.0
1694001869.9503052,68087960.0,323.0,324.0,1.0,0.0,0.0
1694001869.9503052,68090052.0,332.0,328.0,1.0,0.0,0.0
1694001869.9513052,68092144.0,332.0,330.0,1.0,0.0,0.0
1694001869.9523041,68094236.0,315.0,329.0,1.0,0.0,0.0
1694001869.9523041,68096332.0,333.0,329.0,1.0,0.0,0.0
1694001869.9533052,68098420.0,333.0,324.0,1.0,0.0,0.0
1694001869.9533052,68100516.0,326.0,323.0,1.0,0.0,0.0
1694001870.0008755,68102608.0,328.0,324.0,1.0,0.0,0.0
1694001870.0018737,68104700.0,326.0,324.0,1.0,0.0,0.0
1694001870.0018737,68106792.0,328.0,325.0,1.0,0.0,0.0
1694001870.0028746,68108884.0,328.0,328.0,1.0,0.0,0.0
1694001870.003873,68110976.0,329.0,331.0,1.0,0.0,0.0
1694001870.003873,68113068.0,325.0,331.0,1.0,0.0,0.0
1694001870.004874,68115160.0,328.0,328.0,1.0,0.0,0.0
1694001870.004874,68117252.0,330.0,327.0,1.0,0.0,0.0
1694001870.0058727,68119344.0,330.0,324.0,1.0,0.0,0.0
1694001870.0068731,68121440.0,328.0,324.0,1.0,0.0,0.0
1694001870.0068731,68123532.0,327.0,321.0,1.0,0.0,0.0
1694001870.0078726,68125624.0,326.0,323.0,1.0,0.0,0.0
1694001870.0078726,68127716.0,326.0,326.0,1.0,0.0,0.0
1694001870.008873,68129816.0,327.0,331.0,1.0,0.0,0.0
1694001870.008873,68131904.0,328.0,331.0,1.0,0.0,0.0
1694001870.0098732,68133996.0,329.0,326.0,1.0,0.0,0.0
1694001870.0098732,68136088.0,321.0,329.0,1.0,0.0,0.0
1694001870.0108726,68138180.0,329.0,322.0,1.0,0.0,0.0
1694001870.0108726,68140272.0,331.0,326.0,1.0,1.0,0.0
1694001870.011873,68142364.0,321.0,323.0,1.0,1.0,0.0
1694001870.0128734,68144456.0,328.0,324.0,1.0,1.0,0.0
1694001870.0128734,68146548.0,328.0,324.0,1.0,1.0,0.0
1694001870.0138738,68148644.0,329.0,328.0,1.0,1.0,0.0
1694001870.0138738,68150736.0,329.0,327.0,1.0,1.0,0.0
1694001870.014873,68152824.0,329.0,332.0,1.0,1.0,0.0
1694001870.014873,68154920.0,332.0,330.0,1.0,1.0,0.0
1694001870.015872,68157012.0,329.0,327.0,1.0,1.0,0.0
1694001870.0168743,68159104.0,336.0,327.0,1.0,1.0,0.0
1694001870.0168743,68161196.0,327.0,323.0,1.0,1.0,0.0
1694001870.0178747,68163288.0,317.0,319.0,1.0,1.0,0.0
1694001870.0178747,68165380.0,324.0,324.0,1.0,1.0,0.0
1694001870.060586,68167472.0,324.0,326.0,1.0,1.0,0.0
1694001870.061586,68169564.0,319.0,330.0,1.0,1.0,0.0
1694001870.062586,68171660.0,337.0,332.0,1.0,1.0,0.0
1694001870.062586,68173752.0,331.0,330.0,1.0,1.0,0.0
1694001870.0635874,68175844.0,327.0,325.0,1.0,1.0,0.0
1694001870.0635874,68177944.0,324.0,324.0,1.0,1.0,0.0
1694001870.064586,68180028.0,332.0,325.0,1.0,1.0,0.0
1694001870.0655859,68182124.0,334.0,325.0,1.0,1.0,0.0
1694001870.0655859,68184216.0,332.0,322.0,1.0,1.0,0.0
1694001870.0665867,68186308.0,335.0,326.0,1.0,1.0,0.0
1694001870.0675855,68188400.0,322.0,329.0,1.0,1.0,0.0
1694001870.0675855,68190492.0,320.0,325.0,1.0,1.0,0.0
1694001870.0685863,68192584.0,333.0,329.0,1.0,1.0,0.0
1694001870.0685863,68194676.0,328.0,332.0,1.0,1.0,0.0
1694001870.0695856,68196768.0,329.0,328.0,1.0,1.0,0.0
1694001870.0695856,68198860.0,320.0,324.0,1.0,1.0,0.0
1694001870.070586,68200952.0,325.0,322.0,1.0,1.0,0.0
1694001870.070586,68203044.0,325.0,323.0,1.0,1.0,0.0
1694001870.071586,68205140.0,337.0,321.0,1.0,1.0,0.0
1694001870.071586,68207232.0,344.0,325.0,1.0,1.0,0.0
1694001870.0725858,68209324.0,312.0,329.0,1.0,1.0,0.0
1694001870.0725858,68211416.0,325.0,330.0,1.0,1.0,0.0
1694001870.073586,68213508.0,333.0,331.0,1.0,1.0,0.0
1694001870.073586,68215600.0,315.0,330.0,1.0,1.0,0.0
1694001870.0745862,68217692.0,329.0,327.0,1.0,1.0,0.0
1694001870.0755858,68219788.0,316.0,325.0,1.0,1.0,0.0
1694001870.0755858,68221880.0,328.0,323.0,1.0,1.0,0.0
1694001870.0765855,68223972.0,327.0,318.0,1.0,1.0,0.0
1694001870.125828,68226072.0,342.0,323.0,1.0,1.0,0.0
1694001870.126827,68228156.0,343.0,330.0,1.0,1.0,0.0
1694001870.1278274,68230248.0,309.0,330.0,1.0,1.0,0.0
1694001870.1278274,68232344.0,328.0,330.0,1.0,1.0,0.0
1694001870.1288266,68234436.0,341.0,330.0,1.0,1.0,0.0
1694001870.1288266,68236528.0,337.0,330.0,1.0,1.0,0.0
1694001870.1298282,68238620.0,331.0,324.0,1.0,1.0,0.0
1694001870.1308298,68240712.0,307.0,317.0,1.0,1.0,0.0
1694001870.1308298,68242804.0,320.0,323.0,1.0,1.0,0.0
1694001870.1318276,68244896.0,333.0,324.0,1.0,1.0,0.0
1694001870.1328285,68246988.0,331.0,325.0,1.0,1.0,0.0
1694001870.1328285,68249080.0,325.0,327.0,1.0,1.0,0.0
1694001870.1338277,68251172.0,330.0,330.0,1.0,1.0,0.0
1694001870.1348276,68253268.0,337.0,331.0,1.0,1.0,0.0
1694001870.1348276,68255360.0,314.0,332.0,1.0,1.0,0.0
1694001870.135828,68257452.0,314.0,328.0,1.0,1.0,0.0
1694001870.135828,68259544.0,330.0,325.0,1.0,1.0,0.0
1694001870.1368275,68261636.0,338.0,319.0,1.0,1.0,0.0
1694001870.1368275,68263728.0,323.0,319.0,1.0,1.0,0.0
1694001870.1378272,68265820.0,323.0,323.0,1.0,1.0,1.0
1694001870.1378272,68267916.0,327.0,331.0,1.0,1.0,1.0
1694001870.1388278,68270008.0,325.0,323.0,1.0,1.0,1.0
1694001870.1388278,68272100.0,332.0,332.0,1.0,1.0,1.0
1694001870.139827,68274200.0,329.0,329.0,1.0,1.0,1.0
1694001870.1408274,68276284.0,334.0,326.0,1.0,1.0,1.0
1694001870.1408274,68278376.0,337.0,328.0,1.0,1.0,1.0
1694001870.141828,68280468.0,301.0,324.0,1.0,1.0,1.0
1694001870.141828,68282564.0,320.0,323.0,1.0,1.0,1.0
1694001870.1428277,68284656.0,320.0,322.0,1.0,1.0,1.0
1694001870.1428277,68286748.0,325.0,324.0,1.0,1.0,1.0
1694001870.1438272,68288840.0,332.0,328.0,1.0,1.0,1.0
1694001870.1438272,68290932.0,335.0,329.0,1.0,1.0,1.0
1694001870.187583,68293024.0,333.0,327.0,1.0,1.0,1.0
1694001870.1885812,68295116.0,339.0,331.0,1.0,1.0,1.0
1694001870.1885812,68297208.0,326.0,327.0,1.0,1.0,1.0
1694001870.1895814,68299300.0,316.0,328.0,1.0,1.0,1.0
1694001870.190581,68301396.0,328.0,325.0,1.0,1.0,1.0
1694001870.190581,68303488.0,335.0,323.0,1.0,1.0,1.0
1694001870.1915815,68305580.0,322.0,322.0,0.0,1.0,1.0
1694001870.1915815,68307672.0,351.0,325.0,0.0,1.0,1.0
1694001870.1925817,68309764.0,325.0,328.0,0.0,1.0,1.0
1694001870.1935809,68311856.0,287.0,331.0,0.0,1.0,1.0
1694001870.1935809,68313948.0,309.0,330.0,0.0,1.0,1.0
1694001870.194581,68316044.0,341.0,328.0,0.0,1.0,1.0
1694001870.194581,68318132.0,346.0,324.0,0.0,1.0,1.0
1694001870.1955807,68320228.0,346.0,326.0,0.0,1.0,1.0
1694001870.1955807,68322328.0,307.0,323.0,0.0,1.0,1.0
1694001870.1965816,68324412.0,316.0,324.0,0.0,1.0,1.0
1694001870.1965816,68326504.0,343.0,323.0,0.0,1.0,1.0
1694001870.1975808,68328596.0,338.0,325.0,0.0,1.0,1.0
1694001870.1975808,68330688.0,319.0,326.0,0.0,1.0,1.0
1694001870.198583,68332784.0,335.0,328.0,0.0,1.0,1.0
1694001870.1995916,68334876.0,331.0,332.0,0.0,1.0,1.0
1694001870.1995916,68336968.0,329.0,331.0,0.0,1.0,1.0
1694001870.2005813,68339060.0,322.0,329.0,0.0,1.0,1.0
1694001870.2005813,68341152.0,324.0,323.0,0.0,1.0,1.0
1694001870.2015812,68343244.0,332.0,317.0,0.0,1.0,1.0
1694001870.2015812,68345336.0,328.0,324.0,0.0,1.0,1.0
1694001870.2025814,68347428.0,332.0,324.0,0.0,1.0,1.0
1694001870.2025814,68349520.0,330.0,328.0,0.0,1.0,1.0
1694001870.2035809,68351616.0,333.0,329.0,0.0,0.0,1.0
1694001870.2497287,68353708.0,342.0,330.0,0.0,0.0,1.0
1694001870.2507286,68355800.0,332.0,327.0,0.0,0.0,1.0
1694001870.2507286,68357892.0,285.0,322.0,0.0,0.0,1.0
1694001870.2517314,68359984.0,307.0,324.0,0.0,0.0,1.0
1694001870.2517314,68362076.0,338.0,326.0,0.0,0.0,1.0
1694001870.2527297,68364168.0,338.0,325.0,0.0,0.0,1.0
1694001870.2527297,68366264.0,342.0,323.0,0.0,0.0,1.0
1694001870.253728,68368352.0,330.0,325.0,0.0,0.0,1.0
1694001870.2547286,68370456.0,325.0,328.0,0.0,0.0,1.0
1694001870.2547286,68372540.0,343.0,330.0,0.0,0.0,1.0
1694001870.2557278,68374632.0,326.0,329.0,0.0,0.0,1.0
1694001870.2557278,68376724.0,329.0,331.0,0.0,0.0,1.0
1694001870.2567282,68378816.0,311.0,328.0,0.0,0.0,1.0
1694001870.2567282,68380908.0,328.0,326.0,0.0,0.0,1.0
1694001870.2577314,68383000.0,334.0,323.0,0.0,0.0,1.0
1694001870.2577314,68385096.0,320.0,325.0,0.0,0.0,1.0
1694001870.2587337,68387188.0,327.0,324.0,0.0,0.0,1.0
1694001870.2587337,68389280.0,336.0,324.0,0.0,0.0,1.0
1694001870.259731,68391372.0,331.0,328.0,0.0,0.0,1.0
1694001870.2607315,68393464.0,324.0,327.0,0.0,0.0,1.0
1694001870.2607315,68395556.0,334.0,332.0,0.0,0.0,1.0
1694001870.2617288,68397648.0,333.0,329.0,0.0,0.0,1.0
1694001870.2617288,68399740.0,315.0,326.0,0.0,0.0,1.0
1694001870.262728,68401836.0,327.0,325.0,0.0,0.0,1.0
1694001870.262728,68403928.0,331.0,320.0,0.0,0.0,1.0
1694001870.263729,68406020.0,323.0,321.0,0.0,0.0,1.0
1694001870.2647276,68408112.0,335.0,325.0,0.0,0.0,1.0
1694001870.2647276,68410204.0,326.0,327.0,0.0,0.0,1.0
1694001870.2657294,68412296.0,328.0,327.0,0.0,0.0,1.0
1694001870.2657294,68414388.0,336.0,329.0,0.0,0.0,1.0
1694001870.311369,68416484.0,330.0,333.0,0.0,0.0,1.0
1694001870.3123698,68418584.0,321.0,330.0,0.0,0.0,1.0
1694001870.3133695,68420668.0,322.0,322.0,0.0,0.0,1.0
1694001870.3143697,68422760.0,325.0,322.0,0.0,0.0,1.0
1694001870.3143697,68424852.0,334.0,323.0,0.0,0.0,1.0
1694001870.3153737,68426944.0,329.0,323.0,0.0,0.0,1.0
1694001870.3163698,68429036.0,322.0,325.0,0.0,0.0,1.0
1694001870.3163698,68431128.0,330.0,330.0,0.0,0.0,1.0
1694001870.3173707,68433220.0,315.0,332.0,0.0,0.0,1.0
1694001870.3173707,68435316.0,338.0,329.0,0.0,0.0,1.0
1694001870.3183699,68437408.0,334.0,329.0,0.0,0.0,1.0
1694001870.3193693,68439500.0,322.0,326.0,0.0,0.0,1.0
1694001870.3193693,68441592.0,313.0,325.0,0.0,0.0,1.0
1694001870.3203692,68443684.0,326.0,322.0,0.0,0.0,1.0
1694001870.3203692,68445776.0,329.0,319.0,0.0,0.0,1.0
1694001870.3213696,68447868.0,326.0,326.0,0.0,0.0,1.0
1694001870.3213696,68449960.0,324.0,329.0,0.0,0.0,1.0
1694001870.3223689,68452056.0,335.0,327.0,0.0,0.0,1.0
1694001870.3223689,68454148.0,333.0,328.0,0.0,0.0,1.0
1694001870.3233705,68456240.0,328.0,330.0,0.0,0.0,1.0
1694001870.3243694,68458332.0,329.0,328.0,0.0,0.0,1.0
1694001870.3243694,68460424.0,331.0,325.0,0.0,0.0,0.0
1694001870.3253691,68462516.0,331.0,323.0,0.0,0.0,0.0
1694001870.3253691,68464608.0,317.0,322.0,0.0,0.0,0.0
1694001870.3263693,68466708.0,318.0,331.0,0.0,0.0,0.0
1694001870.3263693,68468796.0,341.0,328.0,0.0,0.0,0.0
1694001870.3273692,68470888.0,329.0,321.0,0.0,0.0,0.0
1694001870.3273692,68472980.0,299.0,319.0,0.0,0.0,0.0
1694001870.3283696,68475072.0,331.0,331.0,0.0,0.0,0.0
1694001870.3293688,68477164.0,328.0,330.0,0.0,0.0,0.0
1694001870.3739676,68479256.0,331.0,330.0,0.0,0.0,0.0
1694001870.3749695,68481348.0,333.0,327.0,0.0,0.0,0.0
1694001870.375969,68483444.0,332.0,325.0,0.0,0.0,0.0
1694001870.375969,68485536.0,327.0,325.0,0.0,0.0,0.0
1694001870.3769677,68487628.0,331.0,325.0,0.0,0.0,0.0
1694001870.3779697,68489720.0,326.0,324.0,0.0,0.0,0.0
1694001870.3789685,68491812.0,336.0,328.0,0.0,0.0,0.0
1694001870.3789685,68493904.0,318.0,330.0,0.0,0.0,0.0
1694001870.3799684,68495996.0,324.0,327.0,0.0,0.0,0.0
1694001870.3809693,68498088.0,319.0,329.0,0.0,0.0,0.0
1694001870.381968,68500184.0,331.0,328.0,0.0,0.0,0.0
1694001870.381968,68502272.0,327.0,325.0,0.0,0.0,0.0
1694001870.3829668,68504364.0,329.0,323.0,0.0,0.0,0.0
1694001870.3829668,68506460.0,326.0,321.0,0.0,0.0,0.0
1694001870.3839705,68508552.0,332.0,323.0,0.0,0.0,0.0
1694001870.38497,68510644.0,333.0,328.0,0.0,0.0,0.0
1694001870.38497,68512736.0,324.0,330.0,0.0,0.0,0.0
1694001870.3859682,68514836.0,325.0,327.0,0.0,0.0,0.0
1694001870.3859682,68516920.0,327.0,329.0,0.0,0.0,0.0
1694001870.386971,68519016.0,328.0,329.0,0.0,0.0,0.0
1694001870.386971,68521108.0,327.0,328.0,0.0,0.0,0.0
1694001870.3879693,68523200.0,327.0,327.0,0.0,0.0,0.0
1694001870.3879693,68525292.0,329.0,320.0,0.0,0.0,0.0
1694001870.3889725,68527384.0,325.0,320.0,0.0,0.0,0.0
1694001870.3889725,68529476.0,327.0,326.0,0.0,0.0,0.0
1694001870.389975,68531568.0,327.0,325.0,0.0,0.0,0.0
1694001870.389975,68533660.0,324.0,327.0,0.0,0.0,0.0
1694001870.3909678,68535752.0,327.0,328.0,0.0,0.0,0.0
1694001870.3919702,68537848.0,328.0,329.0,0.0,0.0,0.0
1694001870.3919702,68539940.0,327.0,328.0,0.0,0.0,0.0
1694001870.436381,68542032.0,328.0,326.0,0.0,0.0,0.0
1694001870.4373808,68544124.0,329.0,324.0,0.0,0.0,0.0
1694001870.4373808,68546216.0,328.0,322.0,0.0,0.0,0.0
1694001870.4383812,68548308.0,326.0,323.0,0.0,0.0,0.0
1694001870.4383812,68550400.0,329.0,325.0,0.0,0.0,0.0
1694001870.439381,68552492.0,326.0,328.0,0.0,0.0,0.0
1694001870.439381,68554588.0,324.0,331.0,0.0,0.0,0.0
1694001870.4403808,68556680.0,328.0,330.0,0.0,0.0,0.0
1694001870.4413815,68558772.0,329.0,330.0,0.0,0.0,0.0
1694001870.4413815,68560864.0,330.0,325.0,0.0,0.0,0.0
1694001870.442381,68562964.0,329.0,324.0,0.0,0.0,0.0
1694001870.442381,68565048.0,328.0,323.0,0.0,0.0,0.0
1694001870.443381,68567144.0,328.0,324.0,0.0,0.0,0.0
1694001870.443381,68569236.0,327.0,325.0,0.0,0.0,0.0
1694001870.444381,68571328.0,326.0,323.0,0.0,0.0,0.0
1694001870.444381,68573420.0,325.0,328.0,1.0,0.0,0.0
1694001870.4453814,68575512.0,326.0,331.0,1.0,0.0,0.0
1694001870.4453814,68577604.0,332.0,330.0,1.0,0.0,0.0
1694001870.4463813,68579696.0,323.0,328.0,1.0,0.0,0.0
1694001870.44741,68581788.0,325.0,327.0,1.0,0.0,0.0
1694001870.44741,68583880.0,325.0,328.0,1.0,0.0,0.0
1694001870.4483814,68585972.0,329.0,320.0,1.0,0.0,0.0
1694001870.4483814,68588064.0,332.0,320.0,1.0,0.0,0.0
1694001870.4493856,68590160.0,326.0,328.0,1.0,0.0,0.0
1694001870.4493856,68592252.0,327.0,333.0,1.0,0.0,0.0
1694001870.450382,68594344.0,328.0,333.0,1.0,0.0,0.0
1694001870.450382,68596436.0,329.0,323.0,1.0,0.0,0.0
1694001870.451381,68598528.0,330.0,325.0,1.0,0.0,0.0
1694001870.4523814,68600620.0,328.0,326.0,1.0,0.0,0.0
1694001870.4523814,68602716.0,318.0,325.0,1.0,0.0,0.0
1694001870.4980676,68604808.0,328.0,326.0,1.0,0.0,0.0
1694001870.4990675,68606900.0,331.0,323.0,1.0,0.0,0.0
1694001870.4990675,68608992.0,328.0,322.0,1.0,0.0,0.0
1694001870.5000687,68611092.0,324.0,328.0,1.0,0.0,0.0
1694001870.5010676,68613176.0,325.0,328.0,1.0,0.0,0.0
1694001870.5010676,68615268.0,330.0,332.0,1.0,0.0,0.0
1694001870.502067,68617360.0,332.0,332.0,1.0,0.0,0.0
1694001870.5030675,68619456.0,327.0,330.0,1.0,0.0,0.0
1694001870.5030675,68621548.0,330.0,326.0,1.0,0.0,0.0
1694001870.5040665,68623640.0,327.0,321.0,1.0,0.0,0.0
1694001870.5040665,68625732.0,325.0,322.0,1.0,0.0,0.0
1694001870.505067,68627824.0,326.0,323.0,1.0,0.0,0.0
1694001870.5060663,68629916.0,333.0,325.0,1.0,0.0,0.0
1694001870.5060663,68632008.0,335.0,328.0,1.0,0.0,0.0
1694001870.5070677,68634100.0,320.0,328.0,1.0,1.0,0.0
1694001870.5070677,68636192.0,312.0,330.0,1.0,1.0,0.0
1694001870.508067,68638288.0,326.0,330.0,1.0,1.0,0.0
1694001870.508067,68640380.0,335.0,328.0,1.0,1.0,0.0
1694001870.509067,68642472.0,332.0,325.0,1.0,1.0,0.0
1694001870.509067,68644564.0,328.0,323.0,1.0,1.0,0.0
1694001870.5100675,68646656.0,341.0,327.0,1.0,1.0,0.0
1694001870.5110667,68648748.0,325.0,322.0,1.0,1.0,0.0
1694001870.5110667,68650840.0,306.0,319.0,1.0,1.0,0.0
1694001870.5120668,68652936.0,331.0,327.0,1.0,1.0,0.0
1694001870.5120668,68655028.0,324.0,329.0,1.0,1.0,1.0
1694001870.513067,68657120.0,318.0,330.0,1.0,1.0,1.0
1694001870.513067,68659220.0,334.0,330.0,1.0,1.0,1.0
1694001870.514068,68661304.0,333.0,329.0,1.0,1.0,1.0
1694001870.514068,68663396.0,321.0,324.0,1.0,1.0,1.0
1694001870.5150669,68665488.0,331.0,324.0,1.0,1.0,1.0
1694001870.5613956,68667584.0,334.0,324.0,1.0,1.0,1.0
1694001870.562396,68669676.0,325.0,323.0,1.0,1.0,1.0
1694001870.563397,68671768.0,306.0,323.0,1.0,1.0,1.0
1694001870.563397,68673860.0,332.0,327.0,1.0,1.0,1.0
1694001870.5643969,68675952.0,314.0,331.0,1.0,1.0,1.0
1694001870.5643969,68678044.0,341.0,333.0,1.0,1.0,1.0
1694001870.565396,68680136.0,341.0,324.0,1.0,1.0,1.0
1694001870.565396,68682228.0,341.0,328.0,1.0,1.0,1.0
1694001870.566397,68684320.0,309.0,324.0,1.0,1.0,1.0
1694001870.566397,68686416.0,327.0,324.0,1.0,1.0,1.0
1694001870.5673962,68688508.0,333.0,324.0,1.0,1.0,1.0
1694001870.5673962,68690600.0,332.0,323.0,1.0,1.0,1.0
1694001870.5683973,68692692.0,317.0,328.0,1.0,1.0,1.0
1694001870.5683973,68694784.0,335.0,329.0,1.0,1.0,1.0
1694001870.5693958,68696876.0,333.0,326.0,1.0,1.0,1.0
1694001870.5703962,68698968.0,323.0,331.0,1.0,1.0,1.0
1694001870.5703962,68701064.0,325.0,329.0,1.0,1.0,1.0
1694001870.5713959,68703156.0,322.0,321.0,1.0,1.0,1.0
1694001870.5713959,68705248.0,339.0,324.0,1.0,1.0,1.0
1694001870.5723963,68707348.0,346.0,322.0,1.0,1.0,1.0
1694001870.5723963,68709432.0,301.0,323.0,1.0,1.0,1.0
1694001870.5733957,68711524.0,327.0,327.0,1.0,1.0,1.0
1694001870.5733957,68713616.0,334.0,331.0,1.0,1.0,1.0
1694001870.5743961,68715708.0,325.0,331.0,1.0,1.0,1.0
1694001870.5753956,68717804.0,330.0,328.0,1.0,1.0,1.0
1694001870.5753956,68719896.0,328.0,328.0,1.0,1.0,1.0
1694001870.5763962,68721988.0,317.0,327.0,1.0,1.0,1.0
1694001870.5763962,68724080.0,334.0,322.0,1.0,1.0,1.0
1694001870.5773962,68726172.0,328.0,320.0,1.0,1.0,1.0
1694001870.5773962,68728264.0,338.0,324.0,1.0,1.0,1.0
1694001870.624184,68730356.0,355.0,325.0,1.0,1.0,1.0
1694001870.625184,68732448.0,312.0,327.0,1.0,1.0,1.0
1694001870.626185,68734544.0,314.0,327.0,1.0,1.0,1.0
1694001870.626185,68736636.0,294.0,332.0,1.0,1.0,1.0
1694001870.6271842,68738728.0,322.0,332.0,1.0,1.0,1.0
1694001870.6281838,68740820.0,336.0,330.0,1.0,1.0,1.0
1694001870.6281838,68742912.0,336.0,327.0,1.0,1.0,1.0
1694001870.6291862,68745004.0,333.0,321.0,1.0,1.0,1.0
1694001870.6301851,68747096.0,342.0,323.0,1.0,1.0,1.0
1694001870.6301851,68749188.0,317.0,321.0,1.0,1.0,1.0
1694001870.6311853,68751280.0,334.0,322.0,1.0,1.0,1.0
1694001870.6321874,68753376.0,327.0,328.0,1.0,1.0,1.0
1694001870.6321874,68755476.0,332.0,329.0,1.0,1.0,1.0
1694001870.6331842,68757560.0,318.0,334.0,1.0,1.0,1.0
1694001870.6331842,68759652.0,309.0,329.0,1.0,1.0,1.0
1694001870.634184,68761744.0,318.0,327.0,1.0,1.0,1.0
1694001870.634184,68763836.0,339.0,324.0,1.0,1.0,1.0
1694001870.635185,68765928.0,340.0,325.0,1.0,1.0,1.0
1694001870.635185,68768024.0,329.0,322.0,1.0,1.0,1.0
1694001870.636184,68770116.0,338.0,324.0,1.0,1.0,1.0
1694001870.6371849,68772208.0,310.0,326.0,1.0,1.0,1.0
1694001870.6371849,68774300.0,325.0,328.0,1.0,1.0,1.0
1694001870.6381843,68776392.0,332.0,327.0,1.0,1.0,1.0
1694001870.6381843,68778484.0,325.0,332.0,1.0,1.0,1.0
1694001870.639183,68780576.0,345.0,330.0,1.0,1.0,1.0
1694001870.639183,68782668.0,354.0,324.0,1.0,1.0,1.0
1694001870.6401842,68784760.0,305.0,325.0,1.0,1.0,1.0
1694001870.6411839,68786856.0,278.0,322.0,0.0,1.0,1.0
1694001870.6411839,68788948.0,317.0,322.0,0.0,1.0,1.0
1694001870.6421835,68791040.0,326.0,323.0,0.0,1.0,1.0
1694001870.6864927,68793132.0,333.0,328.0,0.0,1.0,1.0
1694001870.687493,68795224.0,341.0,332.0,0.0,1.0,1.0
1694001870.6884923,68797316.0,343.0,331.0,0.0,1.0,1.0
1694001870.6884923,68799408.0,319.0,327.0,0.0,1.0,1.0
1694001870.6894922,68801500.0,306.0,324.0,0.0,1.0,1.0
1694001870.690492,68803604.0,340.0,328.0,0.0,1.0,1.0
1694001870.690492,68805688.0,346.0,318.0,0.0,1.0,1.0
1694001870.691491,68807780.0,349.0,320.0,0.0,1.0,1.0
1694001870.691491,68809872.0,328.0,324.0,0.0,1.0,1.0
1694001870.692492,68811964.0,275.0,325.0,0.0,0.0,1.0
1694001870.692492,68814056.0,324.0,330.0,0.0,0.0,1.0
1694001870.6934917,68816148.0,333.0,332.0,0.0,0.0,1.0
1694001870.6944919,68818240.0,333.0,331.0,0.0,0.0,1.0
1694001870.6944919,68820336.0,329.0,333.0,0.0,0.0,1.0
1694001870.695494,68822428.0,333.0,326.0,0.0,0.0,1.0
1694001870.695494,68824520.0,343.0,322.0,0.0,0.0,1.0
1694001870.6964922,68826612.0,348.0,323.0,0.0,0.0,1.0
1694001870.6964922,68828704.0,311.0,322.0,0.0,0.0,1.0
1694001870.697492,68830796.0,318.0,323.0,0.0,0.0,1.0
1694001870.6984925,68832888.0,302.0,326.0,0.0,0.0,1.0
1694001870.6984925,68834980.0,335.0,329.0,0.0,0.0,1.0
1694001870.699492,68837076.0,339.0,331.0,0.0,0.0,1.0
1694001870.699492,68839168.0,315.0,328.0,0.0,0.0,1.0
1694001870.7004914,68841260.0,316.0,328.0,0.0,0.0,1.0
1694001870.7004914,68843352.0,333.0,328.0,0.0,0.0,1.0
1694001870.701492,68845444.0,337.0,323.0,0.0,0.0,1.0
1694001870.701492,68847536.0,335.0,323.0,0.0,0.0,0.0
1694001870.7024908,68849628.0,335.0,323.0,0.0,0.0,0.0
1694001870.7024908,68851728.0,324.0,325.0,0.0,0.0,0.0
1694001870.703493,68853812.0,326.0,328.0,0.0,0.0,0.0
1694001870.7480452,68855908.0,329.0,328.0,0.0,0.0,0.0
1694001870.7490444,68858000.0,329.0,329.0,0.0,0.0,0.0
1694001870.7500453,68860092.0,326.0,331.0,0.0,0.0,0.0
1694001870.7500453,68862184.0,329.0,330.0,0.0,0.0,0.0
1694001870.7510443,68864276.0,331.0,326.0,0.0,0.0,0.0
1694001870.7510443,68866368.0,335.0,321.0,0.0,0.0,0.0
1694001870.752048,68868460.0,320.0,317.0,0.0,0.0,0.0
1694001870.7530448,68870556.0,326.0,321.0,0.0,0.0,0.0
1694001870.7530448,68872648.0,328.0,326.0,0.0,0.0,0.0
1694001870.7540445,68874740.0,328.0,329.0,0.0,0.0,0.0
1694001870.7540445,68876832.0,328.0,330.0,0.0,0.0,0.0
1694001870.755044,68878924.0,328.0,332.0,0.0,0.0,0.0
1694001870.755044,68881016.0,328.0,331.0,0.0,0.0,0.0
1694001870.7560446,68883108.0,330.0,328.0,0.0,0.0,0.0
1694001870.7560446,68885200.0,333.0,324.0,0.0,0.0,0.0
1694001870.7570734,68887292.0,327.0,321.0,0.0,0.0,0.0
1694001870.7570734,68889388.0,327.0,321.0,0.0,0.0,0.0
1694001870.758044,68891480.0,328.0,321.0,0.0,0.0,0.0
1694001870.7590706,68893572.0,328.0,328.0,0.0,0.0,0.0
1694001870.7590706,68895664.0,330.0,332.0,0.0,0.0,0.0
1694001870.7600443,68897756.0,327.0,326.0,0.0,0.0,0.0
1694001870.7600443,68899856.0,334.0,330.0,0.0,0.0,0.0
1694001870.761045,68901940.0,331.0,331.0,0.0,0.0,0.0
1694001870.7620454,68904036.0,314.0,326.0,0.0,0.0,0.0
1694001870.7620454,68906128.0,327.0,321.0,0.0,0.0,0.0
1694001870.7630444,68908220.0,331.0,322.0,0.0,0.0,0.0
1694001870.7630444,68910312.0,332.0,324.0,0.0,0.0,0.0
1694001870.7640448,68912404.0,325.0,324.0,0.0,0.0,0.0
1694001870.7640448,68914496.0,324.0,329.0,0.0,0.0,0.0
1694001870.7650466,68916588.0,329.0,331.0,0.0,0.0,0.0
1694001870.8124537,68918684.0,329.0,331.0,0.0,0.0,0.0
1694001870.8134542,68920776.0,333.0,330.0,0.0,0.0,0.0
1694001870.814453,68922864.0,329.0,326.0,0.0,0.0,0.0
1694001870.814453,68924960.0,325.0,325.0,0.0,0.0,0.0
1694001870.8154552,68927052.0,326.0,323.0,0.0,0.0,0.0
1694001870.8164525,68929144.0,328.0,321.0,0.0,0.0,0.0
1694001870.8164525,68931236.0,330.0,322.0,0.0,0.0,0.0
1694001870.8174565,68933328.0,328.0,327.0,0.0,0.0,0.0
1694001870.8184533,68935420.0,326.0,326.0,0.0,0.0,0.0
1694001870.8184533,68937512.0,324.0,330.0,0.0,0.0,0.0
1694001870.819453,68939608.0,326.0,329.0,0.0,0.0,0.0
1694001870.8204527,68941700.0,328.0,327.0,0.0,0.0,0.0
1694001870.8204527,68943792.0,328.0,327.0,0.0,0.0,0.0
1694001870.8214529,68945884.0,327.0,324.0,0.0,0.0,0.0
1694001870.8214529,68947984.0,329.0,322.0,0.0,0.0,0.0
1694001870.8224523,68950068.0,328.0,323.0,0.0,0.0,0.0
1694001870.8224523,68952164.0,324.0,324.0,0.0,0.0,0.0
1694001870.8234532,68954256.0,329.0,327.0,0.0,0.0,0.0
1694001870.8234532,68956348.0,330.0,330.0,0.0,0.0,0.0
1694001870.8244536,68958440.0,327.0,331.0,0.0,0.0,0.0
1694001870.8244536,68960532.0,325.0,331.0,0.0,0.0,0.0
1694001870.8254523,68962624.0,324.0,326.0,0.0,0.0,0.0
1694001870.826453,68964716.0,334.0,330.0,0.0,0.0,0.0
1694001870.826453,68966808.0,319.0,323.0,0.0,0.0,0.0
1694001870.827453,68968904.0,329.0,320.0,0.0,0.0,0.0
1694001870.827453,68970992.0,326.0,324.0,0.0,0.0,0.0
1694001870.828453,68973088.0,330.0,326.0,0.0,0.0,0.0
1694001870.829453,68975180.0,327.0,329.0,0.0,0.0,0.0
1694001870.829453,68977272.0,326.0,332.0,0.0,0.0,0.0
1694001870.830453,68979364.0,327.0,327.0,0.0,0.0,0.0
1694001870.830453,68981456.0,333.0,332.0,0.0,0.0,0.0
1694001870.8733737,68983548.0,331.0,323.0,0.0,0.0,0.0
1694001870.8743737,68985640.0,327.0,311.0,0.0,0.0,0.0
1694001870.875374,68987732.0,320.0,315.0,0.0,0.0,0.0
1694001870.875374,68989828.0,329.0,320.0,0.0,0.0,0.0
1694001870.876374,68991920.0,327.0,327.0,0.0,0.0,0.0
1694001870.8773737,68994012.0,324.0,329.0,0.0,0.0,0.0
1694001870.8773737,68996112.0,326.0,331.0,0.0,0.0,0.0
1694001870.8783746,68998196.0,329.0,332.0,0.0,0.0,0.0
1694001870.8783746,69000288.0,332.0,331.0,0.0,0.0,0.0
1694001870.8793733,69002384.0,330.0,331.0,0.0,0.0,0.0
1694001870.8793733,69004476.0,326.0,327.0,0.0,0.0,0.0
1694001870.8803732,69006568.0,326.0,324.0,0.0,0.0,0.0
1694001870.8813734,69008660.0,326.0,326.0,0.0,0.0,0.0
1694001870.8813734,69010752.0,330.0,325.0,0.0,0.0,0.0
1694001870.8823733,69012844.0,332.0,321.0,0.0,0.0,0.0
1694001870.8823733,69014936.0,331.0,325.0,0.0,0.0,0.0
1694001870.883374,69017028.0,312.0,326.0,0.0,0.0,0.0
1694001870.883374,69019120.0,331.0,332.0,0.0,0.0,0.0
1694001870.8843734,69021212.0,321.0,333.0,0.0,0.0,0.0
1694001870.8843734,69023308.0,331.0,327.0,0.0,0.0,0.0
1694001870.8853736,69025400.0,336.0,326.0,0.0,0.0,0.0
1694001870.8853736,69027492.0,328.0,326.0,0.0,0.0,0.0
1694001870.8863733,69029584.0,317.0,319.0,0.0,0.0,0.0
1694001870.8863733,69031676.0,320.0,321.0,0.0,0.0,0.0
1694001870.8873737,69033768.0,330.0,328.0,0.0,0.0,0.0
1694001870.8883746,69035860.0,336.0,328.0,1.0,0.0,0.0
1694001870.8883746,69037956.0,330.0,324.0,1.0,0.0,0.0
1694001870.8893745,69040048.0,327.0,332.0,1.0,0.0,0.0
1694001870.8893745,69042140.0,336.0,332.0,1.0,0.0,0.0
1694001870.936494,69044240.0,332.0,327.0,1.0,0.0,0.0
1694001870.9374933,69046324.0,321.0,323.0,1.0,0.0,0.0
1694001870.9374933,69048416.0,329.0,319.0,1.0,0.0,0.0
1694001870.9384942,69050508.0,319.0,321.0,1.0,0.0,0.0
1694001870.9394941,69052604.0,350.0,325.0,1.0,0.0,0.0
1694001870.9394941,69054696.0,337.0,329.0,1.0,0.0,0.0
1694001870.9404933,69056788.0,325.0,331.0,1.0,0.0,0.0
1694001870.941494,69058880.0,316.0,331.0,1.0,1.0,0.0
1694001870.941494,69060972.0,328.0,328.0,1.0,1.0,0.0
1694001870.9424942,69063064.0,316.0,329.0,1.0,1.0,0.0
1694001870.9424942,69065156.0,336.0,325.0,1.0,1.0,0.0
1694001870.9434934,69067248.0,345.0,324.0,1.0,1.0,0.0
1694001870.9444945,69069340.0,319.0,321.0,1.0,1.0,0.0
1694001870.9444945,69071436.0,342.0,324.0,1.0,1.0,0.0
1694001870.9454937,69073528.0,336.0,326.0,1.0,1.0,0.0
1694001870.9454937,69075620.0,317.0,326.0,1.0,1.0,0.0
1694001870.9464946,69077712.0,340.0,329.0,1.0,1.0,1.0
1694001870.9464946,69079804.0,320.0,332.0,1.0,1.0,1.0
1694001870.9474936,69081896.0,298.0,331.0,1.0,1.0,1.0
1694001870.9484928,69083988.0,329.0,326.0,1.0,1.0,1.0
1694001870.9484928,69086084.0,361.0,325.0,1.0,1.0,1.0
1694001870.9494941,69088172.0,364.0,322.0,1.0,1.0,1.0
1694001870.9494941,69090268.0,308.0,321.0,1.0,1.0,1.0
1694001870.950494,69092368.0,291.0,323.0,1.0,1.0,1.0
1694001870.950494,69094452.0,337.0,329.0,1.0,1.0,1.0
1694001870.951494,69096544.0,328.0,326.0,1.0,1.0,1.0
1694001870.951494,69098636.0,343.0,324.0,1.0,1.0,1.0
1694001870.952494,69100728.0,335.0,331.0,1.0,1.0,1.0
1694001870.952494,69102824.0,329.0,329.0,1.0,1.0,1.0
1694001870.9534936,69104916.0,339.0,330.0,1.0,1.0,1.0
1694001870.9544942,69107008.0,334.0,324.0,1.0,1.0,1.0
1694001871.0012603,69109100.0,339.0,317.0,1.0,1.0,1.0
1694001871.0022593,69111192.0,336.0,323.0,1.0,1.0,1.0
1694001871.0022593,69113284.0,326.0,323.0,1.0,1.0,1.0
1694001871.0032592,69115376.0,322.0,329.0,1.0,1.0,1.0
1694001871.0032592,69117472.0,305.0,328.0,1.0,1.0,1.0
1694001871.0042589,69119560.0,341.0,331.0,1.0,1.0,1.0
1694001871.0042589,69121656.0,309.0,329.0,1.0,1.0,1.0
1694001871.005259,69123748.0,324.0,328.0,1.0,1.0,1.0
1694001871.0062587,69125840.0,334.0,328.0,1.0,1.0,1.0
1694001871.0062587,69127932.0,354.0,324.0,1.0,1.0,1.0
1694001871.007259,69130024.0,298.0,319.0,1.0,1.0,1.0
1694001871.007259,69132116.0,336.0,323.0,1.0,1.0,1.0
1694001871.0082607,69134208.0,345.0,324.0,1.0,1.0,1.0
1694001871.0082607,69136304.0,331.0,323.0,1.0,1.0,1.0
1694001871.0092592,69138392.0,339.0,329.0,1.0,1.0,1.0
1694001871.0102658,69140496.0,307.0,333.0,1.0,1.0,1.0
1694001871.0102658,69142580.0,317.0,331.0,0.0,1.0,1.0
1694001871.0112596,69144672.0,336.0,326.0,0.0,1.0,1.0
1694001871.0112596,69146764.0,337.0,326.0,0.0,1.0,1.0
1694001871.0122592,69148856.0,326.0,321.0,0.0,1.0,1.0
1694001871.0122592,69150948.0,328.0,323.0,0.0,1.0,1.0
1694001871.0132625,69153040.0,310.0,327.0,0.0,1.0,1.0
1694001871.0142598,69155136.0,317.0,322.0,0.0,1.0,1.0
1694001871.0142598,69157228.0,358.0,327.0,0.0,1.0,1.0
1694001871.0152588,69159320.0,340.0,331.0,0.0,1.0,1.0
1694001871.0152588,69161412.0,317.0,334.0,0.0,1.0,1.0
1694001871.016259,69163504.0,310.0,330.0,0.0,1.0,1.0
1694001871.016259,69165596.0,323.0,321.0,0.0,0.0,1.0
1694001871.0172586,69167688.0,347.0,324.0,0.0,0.0,1.0
1694001871.0172586,69169780.0,332.0,321.0,0.0,0.0,1.0
1694001871.0182593,69171876.0,314.0,322.0,0.0,0.0,1.0
1694001871.0615315,69173968.0,321.0,323.0,0.0,0.0,1.0
1694001871.0625327,69176060.0,334.0,328.0,0.0,0.0,1.0
1694001871.0625327,69178152.0,344.0,332.0,0.0,0.0,1.0
1694001871.0635333,69180244.0,305.0,333.0,0.0,0.0,1.0
1694001871.0645318,69182336.0,339.0,332.0,0.0,0.0,1.0
1694001871.0645318,69184428.0,320.0,325.0,0.0,0.0,1.0
1694001871.0655317,69186524.0,332.0,322.0,0.0,0.0,1.0
1694001871.0665314,69188620.0,312.0,324.0,0.0,0.0,1.0
1694001871.0665314,69190704.0,340.0,319.0,0.0,0.0,1.0
1694001871.067531,69192800.0,336.0,323.0,0.0,0.0,1.0
1694001871.067531,69194892.0,317.0,322.0,0.0,0.0,1.0
1694001871.0685315,69196984.0,324.0,331.0,0.0,0.0,1.0
1694001871.0685315,69199076.0,311.0,332.0,0.0,0.0,1.0
1694001871.0695314,69201168.0,329.0,331.0,0.0,0.0,1.0
1694001871.0705304,69203260.0,347.0,327.0,0.0,0.0,1.0
1694001871.0705304,69205356.0,331.0,328.0,0.0,0.0,1.0
1694001871.0715313,69207448.0,333.0,325.0,0.0,0.0,1.0
1694001871.0715313,69209540.0,323.0,323.0,0.0,0.0,1.0
1694001871.0725303,69211632.0,330.0,322.0,0.0,0.0,1.0
1694001871.0725303,69213724.0,314.0,324.0,0.0,0.0,1.0
1694001871.073531,69215816.0,335.0,326.0,0.0,0.0,1.0
1694001871.073531,69217908.0,322.0,329.0,0.0,0.0,1.0
1694001871.0745316,69220000.0,317.0,331.0,0.0,0.0,1.0
1694001871.0745316,69222096.0,329.0,333.0,0.0,0.0,1.0
1694001871.075531,69224184.0,341.0,329.0,0.0,0.0,1.0
1694001871.0765314,69226280.0,332.0,324.0,0.0,0.0,1.0
1694001871.0765314,69228372.0,319.0,323.0,0.0,0.0,1.0
1694001871.0775318,69230464.0,327.0,318.0,0.0,0.0,1.0
1694001871.0775318,69232556.0,334.0,324.0,0.0,0.0,1.0
1694001871.1250653,69234648.0,327.0,323.0,0.0,0.0,1.0
1694001871.126066,69236752.0,327.0,328.0,0.0,0.0,0.0
1694001871.1270664,69238836.0,329.0,324.0,0.0,0.0,0.0
1694001871.1270664,69240928.0,326.0,329.0,0.0,0.0,0.0
1694001871.1280658,69243020.0,331.0,333.0,0.0,0.0,0.0
1694001871.1280658,69245112.0,331.0,332.0,0.0,0.0,0.0
1694001871.129066,69247204.0,328.0,328.0,0.0,0.0,0.0
1694001871.130066,69249296.0,330.0,325.0,0.0,0.0,0.0
1694001871.130066,69251388.0,329.0,318.0,0.0,0.0,0.0
1694001871.131066,69253480.0,332.0,322.0,0.0,0.0,0.0
1694001871.1320653,69255576.0,322.0,327.0,0.0,0.0,0.0
1694001871.1320653,69257668.0,324.0,329.0,0.0,0.0,0.0
1694001871.1330657,69259760.0,325.0,327.0,0.0,0.0,0.0
1694001871.1330657,69261852.0,328.0,329.0,0.0,0.0,0.0
1694001871.1340656,69263944.0,331.0,331.0,0.0,0.0,0.0
1694001871.1350644,69266036.0,332.0,328.0,0.0,0.0,0.0
1694001871.1350644,69268128.0,328.0,325.0,0.0,0.0,0.0
1694001871.1360652,69270220.0,329.0,323.0,0.0,0.0,0.0
1694001871.1360652,69272312.0,327.0,322.0,0.0,0.0,0.0
1694001871.1370645,69274404.0,326.0,322.0,0.0,0.0,0.0
1694001871.1370645,69276500.0,342.0,328.0,0.0,0.0,0.0
1694001871.1380653,69278592.0,331.0,330.0,0.0,0.0,0.0
1694001871.1380653,69280684.0,304.0,330.0,0.0,0.0,0.0
1694001871.139065,69282776.0,333.0,330.0,0.0,0.0,0.0
1694001871.139065,69284876.0,315.0,328.0,0.0,0.0,0.0
1694001871.140065,69286964.0,343.0,327.0,0.0,0.0,0.0
1694001871.1410654,69289056.0,334.0,326.0,0.0,0.0,0.0
1694001871.1410654,69291148.0,328.0,323.0,0.0,0.0,0.0
1694001871.1420648,69293240.0,332.0,324.0,0.0,0.0,0.0
1694001871.1420648,69295332.0,327.0,323.0,0.0,0.0,0.0
1694001871.1887867,69297424.0,329.0,327.0,0.0,0.0,0.0
1694001871.1897867,69299516.0,328.0,327.0,0.0,0.0,0.0
1694001871.1897867,69301608.0,327.0,331.0,0.0,0.0,0.0
1694001871.1907868,69303700.0,329.0,326.0,0.0,0.0,0.0
1694001871.1917868,69305796.0,330.0,327.0,0.0,0.0,0.0
1694001871.192788,69307884.0,329.0,327.0,0.0,0.0,0.0
1694001871.192788,69309980.0,328.0,326.0,0.0,0.0,0.0
1694001871.1937885,69312072.0,329.0,322.0,0.0,0.0,0.0
1694001871.1947958,69314164.0,326.0,325.0,0.0,0.0,0.0
1694001871.1947958,69316256.0,328.0,325.0,0.0,0.0,0.0
1694001871.1957886,69318348.0,329.0,329.0,0.0,0.0,0.0
1694001871.1957886,69320440.0,327.0,331.0,0.0,0.0,0.0
1694001871.196787,69322532.0,328.0,330.0,0.0,0.0,0.0
1694001871.1977868,69324628.0,328.0,330.0,0.0,0.0,0.0
1694001871.1977868,69326720.0,328.0,328.0,0.0,0.0,0.0
1694001871.1987865,69328812.0,330.0,326.0,0.0,0.0,0.0
1694001871.1987865,69330904.0,329.0,323.0,0.0,0.0,0.0
1694001871.1997867,69333004.0,326.0,310.0,0.0,0.0,0.0
1694001871.1997867,69335088.0,326.0,322.0,0.0,0.0,0.0
1694001871.2007866,69337180.0,329.0,329.0,0.0,0.0,0.0
1694001871.2007866,69339276.0,326.0,329.0,0.0,0.0,0.0
1694001871.2017863,69341368.0,329.0,333.0,0.0,0.0,0.0
1694001871.2017863,69343460.0,327.0,330.0,0.0,0.0,0.0
1694001871.202787,69345552.0,328.0,329.0,0.0,0.0,0.0
1694001871.202787,69347644.0,331.0,327.0,0.0,0.0,0.0
1694001871.203787,69349736.0,328.0,324.0,0.0,0.0,0.0
1694001871.2047868,69351828.0,323.0,323.0,0.0,0.0,0.0
1694001871.2047868,69353920.0,327.0,323.0,0.0,0.0,0.0
1694001871.2057867,69356012.0,333.0,325.0,0.0,0.0,0.0
1694001871.2057867,69358108.0,328.0,328.0,0.0,0.0,0.0
1694001871.2067862,69360200.0,328.0,331.0,0.0,0.0,0.0
1694001871.2483883,69362292.0,325.0,327.0,0.0,0.0,0.0
1694001871.2494035,69364384.0,329.0,332.0,0.0,0.0,0.0
1694001871.2494035,69366476.0,329.0,330.0,0.0,0.0,0.0
1694001871.2504015,69368568.0,329.0,321.0,0.0,0.0,0.0
1694001871.2504015,69370660.0,331.0,319.0,0.0,0.0,0.0
1694001871.2514014,69372756.0,326.0,322.0,0.0,0.0,0.0
1694001871.2524014,69374848.0,330.0,323.0,0.0,0.0,0.0
1694001871.2524014,69376940.0,326.0,326.0,0.0,0.0,0.0
1694001871.2534013,69379032.0,325.0,329.0,0.0,0.0,0.0
1694001871.2534013,69381132.0,322.0,330.0,0.0,0.0,0.0
1694001871.254401,69383216.0,335.0,331.0,0.0,0.0,0.0
1694001871.254401,69385308.0,330.0,331.0,0.0,0.0,0.0
1694001871.2554011,69387400.0,328.0,327.0,0.0,0.0,0.0
1694001871.256401,69389496.0,330.0,322.0,0.0,0.0,0.0
1694001871.256401,69391588.0,331.0,323.0,1.0,0.0,0.0
1694001871.257401,69393680.0,325.0,324.0,1.0,0.0,0.0
1694001871.257401,69395772.0,318.0,322.0,1.0,0.0,0.0
1694001871.258402,69397864.0,318.0,330.0,1.0,0.0,0.0
1694001871.258402,69399956.0,334.0,327.0,1.0,0.0,0.0
1694001871.259402,69402048.0,337.0,330.0,1.0,0.0,0.0
1694001871.260402,69404140.0,341.0,331.0,1.0,0.0,0.0
1694001871.260402,69406232.0,329.0,324.0,1.0,0.0,0.0
1694001871.261402,69408328.0,302.0,324.0,1.0,0.0,0.0
1694001871.261402,69410420.0,329.0,323.0,1.0,0.0,0.0
1694001871.2624013,69412512.0,337.0,324.0,1.0,1.0,0.0
1694001871.2624013,69414604.0,347.0,324.0,1.0,1.0,0.0
1694001871.2634013,69416696.0,339.0,323.0,1.0,1.0,0.0
1694001871.2634013,69418788.0,325.0,328.0,1.0,1.0,0.0
1694001871.2644014,69420884.0,307.0,331.0,1.0,1.0,0.0
1694001871.3112965,69422972.0,329.0,335.0,1.0,1.0,0.0
1694001871.3122952,69425068.0,325.0,327.0,1.0,1.0,0.0
1694001871.3122952,69427160.0,325.0,322.0,1.0,1.0,0.0
1694001871.3132951,69429260.0,321.0,323.0,1.0,1.0,0.0
1694001871.3142946,69431344.0,350.0,324.0,1.0,1.0,1.0
1694001871.3152945,69433436.0,334.0,323.0,1.0,1.0,1.0
1694001871.3152945,69435528.0,334.0,325.0,1.0,1.0,1.0
1694001871.3162944,69437620.0,301.0,326.0,1.0,1.0,1.0
1694001871.317311,69439716.0,333.0,327.0,1.0,1.0,1.0
1694001871.317311,69441808.0,339.0,332.0,1.0,1.0,1.0
1694001871.3182952,69443900.0,297.0,328.0,1.0,1.0,1.0
1694001871.319294,69445992.0,338.0,329.0,1.0,1.0,1.0
1694001871.319294,69448084.0,315.0,326.0,1.0,1.0,1.0
1694001871.3202949,69450176.0,336.0,325.0,1.0,1.0,1.0
1694001871.3202949,69452268.0,329.0,323.0,1.0,1.0,1.0
1694001871.3212936,69454364.0,346.0,325.0,1.0,1.0,1.0
1694001871.3222957,69456456.0,334.0,325.0,1.0,1.0,1.0
1694001871.3222957,69458548.0,317.0,330.0,1.0,1.0,1.0
1694001871.3232963,69460640.0,322.0,327.0,1.0,1.0,1.0
1694001871.3232963,69462732.0,353.0,331.0,1.0,1.0,1.0
1694001871.3242943,69464824.0,328.0,328.0,1.0,1.0,1.0
1694001871.3252952,69466916.0,301.0,320.0,1.0,1.0,1.0
1694001871.3252952,69469008.0,317.0,324.0,1.0,1.0,1.0
1694001871.3262951,69471104.0,316.0,323.0,1.0,1.0,1.0
1694001871.3262951,69473192.0,328.0,322.0,1.0,1.0,1.0
1694001871.327295,69475288.0,343.0,325.0,1.0,1.0,1.0
1694001871.327295,69477388.0,352.0,326.0,1.0,1.0,1.0
1694001871.3282948,69479472.0,324.0,328.0,1.0,1.0,1.0
1694001871.3282948,69481564.0,299.0,329.0,1.0,1.0,1.0
1694001871.3292956,69483656.0,323.0,330.0,1.0,1.0,1.0
1694001871.3738787,69485748.0,333.0,331.0,1.0,1.0,1.0
1694001871.3748806,69487844.0,355.0,329.0,1.0,1.0,1.0
1694001871.375879,69489936.0,347.0,327.0,1.0,1.0,1.0
1694001871.3768783,69492028.0,345.0,321.0,1.0,1.0,1.0
1694001871.3768783,69494120.0,270.0,321.0,1.0,1.0,1.0
1694001871.3778803,69496212.0,325.0,324.0,1.0,1.0,1.0
1694001871.378879,69498304.0,346.0,323.0,1.0,1.0,1.0
1694001871.378879,69500396.0,317.0,329.0,1.0,1.0,1.0
1694001871.379879,69502488.0,348.0,333.0,1.0,1.0,1.0
1694001871.3808784,69504584.0,332.0,331.0,1.0,1.0,1.0
1694001871.3808784,69506676.0,323.0,329.0,1.0,1.0,1.0
1694001871.3818784,69508768.0,333.0,323.0,1.0,1.0,1.0
1694001871.3818784,69510860.0,327.0,321.0,1.0,1.0,1.0
1694001871.3828785,69512952.0,333.0,323.0,1.0,1.0,1.0
1694001871.3828785,69515044.0,314.0,323.0,1.0,1.0,1.0
1694001871.383879,69517136.0,324.0,330.0,1.0,1.0,1.0
1694001871.383879,69519228.0,333.0,330.0,1.0,1.0,1.0
1694001871.3848782,69521320.0,336.0,324.0,1.0,1.0,1.0
1694001871.3848782,69523416.0,332.0,329.0,1.0,1.0,1.0
1694001871.3858783,69525516.0,328.0,331.0,1.0,1.0,1.0
1694001871.3868775,69527600.0,322.0,325.0,1.0,1.0,1.0
1694001871.3868775,69529692.0,331.0,325.0,1.0,1.0,1.0
1694001871.387878,69531784.0,338.0,326.0,1.0,1.0,1.0
1694001871.387878,69533876.0,315.0,321.0,0.0,1.0,1.0
1694001871.3888779,69535968.0,327.0,325.0,0.0,1.0,1.0
1694001871.3888779,69538064.0,344.0,325.0,0.0,1.0,1.0
1694001871.389878,69540156.0,326.0,324.0,0.0,1.0,1.0
1694001871.389878,69542248.0,301.0,330.0,0.0,1.0,1.0
1694001871.3908837,69544340.0,322.0,331.0,0.0,1.0,1.0
1694001871.391879,69546432.0,339.0,332.0,0.0,1.0,1.0
1694001871.436228,69548524.0,333.0,329.0,0.0,1.0,1.0
1694001871.4372282,69550616.0,318.0,325.0,0.0,1.0,1.0
1694001871.4372282,69552708.0,322.0,322.0,0.0,0.0,1.0
1694001871.438229,69554800.0,334.0,321.0,0.0,0.0,1.0
1694001871.4392288,69556896.0,334.0,325.0,0.0,0.0,1.0
1694001871.4392288,69558988.0,324.0,325.0,0.0,0.0,1.0
1694001871.4402287,69561080.0,309.0,327.0,0.0,0.0,1.0
1694001871.4402287,69563172.0,329.0,331.0,0.0,0.0,1.0
1694001871.4412305,69565264.0,326.0,329.0,0.0,0.0,1.0
1694001871.4422302,69567356.0,334.0,329.0,0.0,0.0,1.0
1694001871.4422302,69569448.0,332.0,327.0,0.0,0.0,1.0
1694001871.4432282,69571544.0,329.0,324.0,0.0,0.0,1.0
1694001871.4432282,69573640.0,324.0,318.0,0.0,0.0,1.0
1694001871.4442294,69575728.0,325.0,321.0,0.0,0.0,1.0
1694001871.4442294,69577820.0,328.0,326.0,0.0,0.0,1.0
1694001871.4452288,69579912.0,328.0,328.0,0.0,0.0,1.0
1694001871.4452288,69582004.0,325.0,325.0,0.0,0.0,1.0
1694001871.4462295,69584096.0,338.0,332.0,0.0,0.0,1.0
1694001871.447255,69586188.0,314.0,331.0,0.0,0.0,1.0
1694001871.447255,69588284.0,317.0,329.0,0.0,0.0,1.0
1694001871.4482284,69590376.0,333.0,326.0,0.0,0.0,0.0
1694001871.4482284,69592468.0,329.0,321.0,0.0,0.0,0.0
1694001871.4492297,69594560.0,329.0,318.0,0.0,0.0,0.0
1694001871.4492297,69596652.0,328.0,326.0,0.0,0.0,0.0
1694001871.4502282,69598744.0,329.0,327.0,0.0,0.0,0.0
1694001871.4512298,69600836.0,327.0,325.0,0.0,0.0,0.0
1694001871.4512298,69602928.0,325.0,330.0,0.0,0.0,0.0
1694001871.452228,69605020.0,324.0,330.0,0.0,0.0,0.0
1694001871.452228,69607116.0,328.0,331.0,0.0,0.0,0.0
1694001871.4532278,69609208.0,331.0,324.0,0.0,0.0,0.0
1694001871.5000591,69611300.0,329.0,324.0,0.0,0.0,0.0
1694001871.5010636,69613392.0,327.0,322.0,0.0,0.0,0.0
1694001871.5010636,69615484.0,328.0,321.0,0.0,0.0,0.0
1694001871.502062,69617576.0,330.0,325.0,0.0,0.0,0.0
1694001871.5030615,69619668.0,326.0,329.0,0.0,0.0,0.0
1694001871.5030615,69621768.0,324.0,327.0,0.0,0.0,0.0
1694001871.5040607,69623856.0,325.0,329.0,0.0,0.0,0.0
1694001871.5050595,69625948.0,327.0,329.0,0.0,0.0,0.0
1694001871.5050595,69628040.0,329.0,330.0,0.0,0.0,0.0
1694001871.5060601,69630132.0,328.0,326.0,0.0,0.0,0.0
1694001871.5060601,69632224.0,328.0,323.0,0.0,0.0,0.0
1694001871.5070643,69634316.0,329.0,322.0,0.0,0.0,0.0
1694001871.5080595,69636408.0,328.0,324.0,0.0,0.0,0.0
1694001871.5080595,69638500.0,327.0,325.0,0.0,0.0,0.0
1694001871.5090616,69640596.0,326.0,329.0,0.0,0.0,0.0
1694001871.5090616,69642688.0,328.0,330.0,0.0,0.0,0.0
1694001871.5100594,69644780.0,328.0,330.0,0.0,0.0,0.0
1694001871.5100594,69646872.0,326.0,330.0,0.0,0.0,0.0
1694001871.5110593,69648964.0,330.0,328.0,0.0,0.0,0.0
1694001871.5110593,69651056.0,330.0,325.0,0.0,0.0,0.0
1694001871.5120595,69653148.0,328.0,323.0,0.0,0.0,0.0
1694001871.51306,69655240.0,329.0,321.0,0.0,0.0,0.0
1694001871.51306,69657332.0,324.0,326.0,0.0,0.0,0.0
1694001871.514059,69659424.0,328.0,321.0,0.0,0.0,0.0
1694001871.514059,69661520.0,329.0,323.0,0.0,0.0,0.0
1694001871.515059,69663612.0,327.0,330.0,0.0,0.0,0.0
1694001871.515059,69665704.0,326.0,332.0,0.0,0.0,0.0
1694001871.5160596,69667796.0,328.0,330.0,0.0,0.0,0.0
1694001871.5160596,69669896.0,326.0,325.0,0.0,0.0,0.0
1694001871.5170598,69671980.0,327.0,326.0,0.0,0.0,0.0
1694001871.5180595,69674076.0,328.0,322.0,0.0,0.0,0.0
1694001871.5626347,69676168.0,328.0,322.0,0.0,0.0,0.0
1694001871.5636353,69678260.0,326.0,324.0,0.0,0.0,0.0
1694001871.5636353,69680352.0,325.0,327.0,0.0,0.0,0.0
1694001871.5646358,69682444.0,329.0,328.0,0.0,0.0,0.0
1694001871.565635,69684536.0,327.0,331.0,0.0,0.0,0.0
1694001871.5666354,69686628.0,329.0,332.0,0.0,0.0,0.0
1694001871.5666354,69688720.0,329.0,329.0,0.0,0.0,0.0
1694001871.5676615,69690816.0,328.0,324.0,0.0,0.0,0.0
1694001871.5686357,69692904.0,331.0,323.0,0.0,0.0,0.0
1694001871.5686357,69695000.0,329.0,322.0,0.0,0.0,0.0
1694001871.5696363,69697092.0,333.0,322.0,0.0,0.0,0.0
1694001871.5696363,69699184.0,330.0,325.0,0.0,0.0,0.0
1694001871.5706348,69701276.0,316.0,328.0,0.0,0.0,0.0
1694001871.5716352,69703368.0,320.0,329.0,0.0,0.0,0.0
1694001871.5716352,69705460.0,319.0,331.0,0.0,0.0,0.0
1694001871.572635,69707552.0,331.0,329.0,0.0,0.0,0.0
1694001871.572635,69709648.0,331.0,326.0,0.0,0.0,0.0
1694001871.5736356,69711740.0,333.0,325.0,0.0,0.0,0.0
1694001871.5736356,69713832.0,333.0,322.0,0.0,0.0,0.0
1694001871.5746355,69715924.0,326.0,321.0,0.0,0.0,0.0
1694001871.5746355,69718024.0,338.0,325.0,0.0,0.0,0.0
1694001871.575636,69720108.0,334.0,330.0,0.0,0.0,0.0
1694001871.5766354,69722200.0,313.0,327.0,0.0,0.0,0.0
1694001871.5766354,69724296.0,323.0,325.0,0.0,0.0,0.0
1694001871.577635,69726388.0,334.0,330.0,0.0,0.0,0.0
1694001871.577635,69728480.0,333.0,331.0,0.0,0.0,0.0
1694001871.5786357,69730572.0,309.0,328.0,0.0,0.0,0.0
1694001871.5786357,69732664.0,327.0,320.0,0.0,0.0,0.0
1694001871.5796366,69734756.0,331.0,321.0,0.0,0.0,0.0
1694001871.5796366,69736848.0,349.0,323.0,0.0,0.0,0.0
1694001871.6254692,69738940.0,324.0,329.0,0.0,0.0,0.0
1694001871.626465,69741036.0,301.0,327.0,0.0,0.0,0.0
1694001871.6274636,69743124.0,326.0,325.0,0.0,0.0,0.0
1694001871.6274636,69745220.0,329.0,327.0,0.0,0.0,0.0
1694001871.628463,69747312.0,347.0,332.0,1.0,0.0,0.0
1694001871.628463,69749404.0,340.0,330.0,1.0,0.0,1.0
1694001871.6294632,69751496.0,324.0,325.0,1.0,0.0,1.0
1694001871.6304636,69753592.0,306.0,322.0,1.0,0.0,1.0
1694001871.6304636,69755680.0,350.0,325.0,1.0,0.0,1.0
1694001871.6314635,69757772.0,320.0,325.0,1.0,0.0,1.0
1694001871.6314635,69759868.0,329.0,327.0,1.0,0.0,1.0
1694001871.6324635,69761960.0,326.0,322.0,1.0,0.0,1.0
1694001871.6324635,69764052.0,329.0,329.0,1.0,0.0,1.0
1694001871.6334639,69766152.0,334.0,331.0,1.0,1.0,1.0
1694001871.6334639,69768236.0,323.0,329.0,1.0,1.0,1.0
1694001871.634463,69770328.0,338.0,325.0,1.0,1.0,1.0
1694001871.634463,69772424.0,291.0,323.0,1.0,1.0,1.0
1694001871.6354635,69774516.0,345.0,324.0,1.0,1.0,1.0
1694001871.6364632,69776608.0,306.0,323.0,1.0,1.0,1.0
1694001871.6364632,69778700.0,322.0,326.0,1.0,1.0,1.0
1694001871.637463,69780792.0,333.0,328.0,1.0,1.0,1.0
1694001871.637463,69782884.0,337.0,332.0,1.0,1.0,1.0
1694001871.638464,69784976.0,341.0,332.0,1.0,1.0,1.0
1694001871.638464,69787068.0,323.0,322.0,1.0,1.0,1.0
1694001871.6394649,69789160.0,325.0,330.0,1.0,1.0,1.0
1694001871.6394649,69791252.0,353.0,323.0,1.0,1.0,1.0
1694001871.6404638,69793348.0,345.0,325.0,1.0,1.0,1.0
1694001871.6404638,69795440.0,302.0,325.0,1.0,1.0,1.0
1694001871.6414669,69797532.0,313.0,323.0,1.0,1.0,1.0
1694001871.6424644,69799624.0,332.0,325.0,1.0,1.0,1.0
1694001871.6882281,69801716.0,342.0,327.0,1.0,1.0,1.0
1694001871.6892273,69803808.0,320.0,332.0,1.0,1.0,1.0
1694001871.6902268,69805900.0,321.0,333.0,1.0,1.0,1.0
1694001871.6902268,69807996.0,328.0,325.0,1.0,1.0,1.0
1694001871.691227,69810088.0,308.0,326.0,1.0,1.0,1.0
1694001871.692229,69812180.0,332.0,323.0,1.0,1.0,1.0
1694001871.692229,69814280.0,348.0,322.0,1.0,1.0,1.0
1694001871.6932266,69816364.0,350.0,320.0,1.0,1.0,1.0
1694001871.6932266,69818456.0,338.0,323.0,1.0,1.0,1.0
1694001871.6942265,69820548.0,305.0,322.0,1.0,1.0,1.0
1694001871.6942265,69822644.0,321.0,331.0,1.0,1.0,1.0
1694001871.6952267,69824736.0,327.0,332.0,1.0,1.0,1.0
1694001871.6952267,69826828.0,344.0,335.0,1.0,1.0,1.0
1694001871.6962273,69828920.0,329.0,328.0,1.0,1.0,1.0
1694001871.6972265,69831012.0,293.0,321.0,1.0,1.0,1.0
1694001871.6972265,69833104.0,322.0,324.0,1.0,1.0,1.0
1694001871.6982265,69835196.0,338.0,324.0,1.0,1.0,1.0
1694001871.6982265,69837292.0,338.0,321.0,1.0,1.0,1.0
1694001871.6992266,69839384.0,346.0,322.0,1.0,1.0,1.0
1694001871.6992266,69841476.0,314.0,330.0,1.0,1.0,1.0
1694001871.7002268,69843568.0,314.0,331.0,1.0,1.0,1.0
1694001871.7002268,69845660.0,330.0,331.0,1.0,1.0,1.0
1694001871.701226,69847752.0,326.0,328.0,1.0,1.0,1.0
1694001871.701226,69849844.0,333.0,328.0,1.0,1.0,1.0
1694001871.7022262,69851936.0,336.0,327.0,1.0,1.0,1.0
1694001871.7032263,69854028.0,332.0,325.0,0.0,0.0,1.0
1694001871.7032263,69856120.0,324.0,323.0,0.0,0.0,1.0
1694001871.7042265,69858216.0,325.0,323.0,0.0,0.0,1.0
1694001871.7042265,69860308.0,326.0,326.0,0.0,0.0,1.0
1694001871.705226,69862408.0,329.0,329.0,0.0,0.0,1.0
1694001871.7486613,69864492.0,327.0,331.0,0.0,0.0,1.0
1694001871.7496612,69866584.0,315.0,331.0,0.0,0.0,1.0
1694001871.7496612,69868676.0,333.0,327.0,0.0,0.0,1.0
1694001871.7506614,69870768.0,335.0,322.0,0.0,0.0,1.0
1694001871.7516618,69872860.0,332.0,325.0,0.0,0.0,0.0
1694001871.7516618,69874956.0,319.0,320.0,0.0,0.0,0.0
1694001871.7526612,69877048.0,318.0,322.0,0.0,0.0,0.0
1694001871.7526612,69879140.0,330.0,327.0,0.0,0.0,0.0
1694001871.7536616,69881232.0,328.0,328.0,0.0,0.0,0.0
1694001871.754661,69883324.0,328.0,327.0,0.0,0.0,0.0
1694001871.754661,69885416.0,329.0,332.0,0.0,0.0,0.0
1694001871.7556617,69887508.0,323.0,330.0,0.0,0.0,0.0
1694001871.7556617,69889600.0,332.0,327.0,0.0,0.0,0.0
1694001871.756661,69891696.0,322.0,326.0,0.0,0.0,0.0
1694001871.756661,69893788.0,330.0,325.0,0.0,0.0,0.0
1694001871.7576616,69895880.0,328.0,323.0,0.0,0.0,0.0
1694001871.7586622,69897972.0,333.0,321.0,0.0,0.0,0.0
1694001871.7586622,69900064.0,327.0,322.0,0.0,0.0,0.0
1694001871.759662,69902156.0,326.0,327.0,0.0,0.0,0.0
1694001871.759662,69904248.0,333.0,331.0,0.0,0.0,0.0
1694001871.7606616,69906340.0,318.0,330.0,0.0,0.0,0.0
1694001871.7606616,69908436.0,314.0,330.0,0.0,0.0,0.0
1694001871.7616613,69910528.0,326.0,327.0,0.0,0.0,0.0
1694001871.7616613,69912620.0,332.0,324.0,0.0,0.0,0.0
1694001871.7626617,69914712.0,334.0,325.0,0.0,0.0,0.0
1694001871.7626617,69916804.0,335.0,322.0,0.0,0.0,0.0
1694001871.7636619,69918896.0,328.0,322.0,0.0,0.0,0.0
1694001871.764661,69920988.0,331.0,325.0,0.0,0.0,0.0
1694001871.764661,69923080.0,322.0,329.0,0.0,0.0,0.0
1694001871.815588,69925176.0,319.0,332.0,0.0,0.0,0.0
1694001871.816587,69927268.0,323.0,328.0,0.0,0.0,0.0
1694001871.8175867,69929360.0,329.0,327.0,0.0,0.0,0.0
1694001871.8175867,69931452.0,332.0,327.0,0.0,0.0,0.0
1694001871.8185873,69933544.0,328.0,325.0,0.0,0.0,0.0
1694001871.8195868,69935636.0,327.0,322.0,0.0,0.0,0.0
1694001871.8195868,69937728.0,328.0,320.0,0.0,0.0,0.0
1694001871.820586,69939820.0,324.0,324.0,0.0,0.0,0.0
1694001871.821587,69941916.0,328.0,328.0,0.0,0.0,0.0
1694001871.822588,69944008.0,337.0,329.0,0.0,0.0,0.0
1694001871.822588,69946100.0,323.0,332.0,0.0,0.0,0.0
1694001871.8235872,69948192.0,323.0,331.0,0.0,0.0,0.0
1694001871.8235872,69950284.0,328.0,329.0,0.0,0.0,0.0
1694001871.824587,69952376.0,329.0,323.0,0.0,0.0,0.0
1694001871.824587,69954468.0,327.0,324.0,0.0,0.0,0.0
1694001871.825587,69956564.0,330.0,320.0,0.0,0.0,0.0
1694001871.8265867,69958652.0,326.0,323.0,0.0,0.0,0.0
1694001871.8265867,69960744.0,325.0,325.0,0.0,0.0,0.0
1694001871.8275867,69962840.0,327.0,333.0,0.0,0.0,0.0
1694001871.8275867,69964932.0,327.0,332.0,0.0,0.0,0.0
1694001871.8285868,69967024.0,327.0,321.0,0.0,0.0,0.0
1694001871.8285868,69969116.0,329.0,324.0,0.0,0.0,0.0
1694001871.8295896,69971208.0,330.0,327.0,0.0,0.0,0.0
1694001871.8295896,69973304.0,328.0,328.0,0.0,0.0,0.0
1694001871.8305867,69975396.0,327.0,326.0,0.0,0.0,0.0
1694001871.8315861,69977488.0,329.0,322.0,0.0,0.0,0.0
1694001871.8315861,69979580.0,327.0,324.0,0.0,0.0,0.0
1694001871.8325865,69981672.0,328.0,327.0,0.0,0.0,0.0
1694001871.8325865,69983764.0,325.0,330.0,0.0,0.0,0.0
1694001871.8335862,69985856.0,325.0,329.0,0.0,0.0,0.0
1694001871.8335862,69987948.0,331.0,331.0,0.0,0.0,0.0
1694001871.8345869,69990040.0,330.0,329.0,0.0,0.0,0.0
1694001871.8345869,69992136.0,319.0,323.0,0.0,0.0,0.0
1694001871.875013,69994228.0,332.0,321.0,0.0,0.0,0.0
1694001871.8760147,69996320.0,327.0,321.0,0.0,0.0,0.0
1694001871.8760147,69998412.0,326.0,322.0,0.0,0.0,0.0
1694001871.8770142,70000504.0,325.0,325.0,0.0,0.0,0.0
1694001871.8770142,70002596.0,326.0,329.0,0.0,0.0,0.0
1694001871.8780148,70004692.0,331.0,329.0,0.0,0.0,0.0
1694001871.8780148,70006780.0,346.0,330.0,0.0,0.0,0.0
1694001871.8790145,70008872.0,331.0,329.0,0.0,0.0,0.0
1694001871.8800135,70010968.0,310.0,329.0,0.0,0.0,0.0
1694001871.8800135,70013060.0,316.0,327.0,0.0,0.0,0.0
1694001871.881014,70015152.0,328.0,324.0,0.0,0.0,0.0
1694001871.881014,70017244.0,336.0,321.0,0.0,0.0,0.0
1694001871.8820133,70019336.0,317.0,320.0,0.0,0.0,0.0
1694001871.883014,70021428.0,314.0,324.0,0.0,0.0,0.0
1694001871.883014,70023524.0,331.0,329.0,0.0,0.0,0.0
1694001871.8840134,70025616.0,340.0,333.0,0.0,0.0,0.0
1694001871.8840134,70027708.0,333.0,333.0,0.0,0.0,0.0
1694001871.8850143,70029800.0,326.0,325.0,0.0,0.0,0.0
1694001871.8850143,70031892.0,327.0,328.0,1.0,0.0,0.0
1694001871.886014,70033984.0,326.0,326.0,1.0,0.0,0.0
1694001871.886014,70036076.0,326.0,325.0,1.0,0.0,0.0
1694001871.887014,70038168.0,333.0,323.0,1.0,0.0,0.0
1694001871.8880146,70040260.0,327.0,325.0,1.0,0.0,0.0
1694001871.8880146,70042352.0,319.0,323.0,1.0,0.0,0.0
1694001871.8890138,70044448.0,322.0,328.0,1.0,0.0,0.0
1694001871.8890138,70046540.0,331.0,328.0,1.0,0.0,0.0
1694001871.890023,70048632.0,329.0,329.0,1.0,1.0,0.0
1694001871.890023,70050724.0,330.0,326.0,1.0,1.0,0.0
1694001871.9375846,70052816.0,332.0,327.0,1.0,1.0,0.0
1694001871.9385855,70054908.0,333.0,325.0,1.0,1.0,0.0
1694001871.9395857,70057004.0,333.0,323.0,1.0,1.0,0.0
1694001871.9395857,70059096.0,315.0,323.0,1.0,1.0,0.0
1694001871.940588,70061188.0,332.0,325.0,1.0,1.0,0.0
1694001871.9415846,70063280.0,333.0,327.0,1.0,1.0,0.0
1694001871.9425843,70065372.0,316.0,329.0,1.0,1.0,0.0
1694001871.9425843,70067464.0,330.0,331.0,1.0,1.0,0.0
1694001871.943584,70069556.0,309.0,329.0,1.0,1.0,0.0
1694001871.943584,70071648.0,328.0,332.0,1.0,1.0,0.0
1694001871.9445841,70073740.0,336.0,324.0,1.0,1.0,0.0
1694001871.9455836,70075836.0,340.0,322.0,1.0,1.0,0.0
1694001871.9455836,70077924.0,335.0,324.0,1.0,1.0,0.0
1694001871.9465842,70080020.0,325.0,323.0,1.0,1.0,0.0
1694001871.9465842,70082112.0,313.0,319.0,1.0,1.0,0.0
1694001871.947584,70084204.0,322.0,327.0,1.0,1.0,0.0
1694001871.947584,70086296.0,334.0,330.0,1.0,1.0,0.0
1694001871.9485834,70088388.0,340.0,332.0,1.0,1.0,0.0
1694001871.9495845,70090480.0,341.0,331.0,1.0,1.0,0.0
1694001871.9495845,70092572.0,315.0,328.0,1.0,1.0,0.0
1694001871.950583,70094668.0,321.0,321.0,1.0,1.0,0.0
1694001871.950583,70096760.0,305.0,321.0,1.0,1.0,0.0
1694001871.9515839,70098852.0,335.0,322.0,1.0,1.0,0.0
1694001871.9515839,70100944.0,341.0,325.0,1.0,1.0,0.0
1694001871.9525843,70103036.0,345.0,327.0,1.0,1.0,0.0
1694001871.9525843,70105132.0,326.0,329.0,1.0,1.0,0.0
1694001871.9535844,70107224.0,332.0,332.0,1.0,1.0,0.0
1694001871.9545963,70109316.0,315.0,332.0,1.0,1.0,0.0
1694001871.9545963,70111408.0,317.0,330.0,1.0,1.0,0.0
1694001871.955585,70113500.0,332.0,324.0,1.0,1.0,0.0
1694001871.9983428,70115592.0,334.0,319.0,1.0,1.0,0.0
1694001871.9993427,70117684.0,320.0,321.0,1.0,1.0,0.0
1694001872.0003426,70119776.0,336.0,321.0,1.0,1.0,0.0
1694001872.0003426,70121868.0,321.0,325.0,1.0,1.0,0.0
1694001872.0013428,70123960.0,333.0,328.0,1.0,1.0,0.0
1694001872.0013428,70126052.0,346.0,330.0,1.0,1.0,0.0
1694001872.0023432,70128144.0,321.0,332.0,1.0,1.0,0.0
1694001872.0023432,70130240.0,331.0,330.0,1.0,1.0,0.0
1694001872.0033433,70132332.0,328.0,329.0,1.0,1.0,0.0
1694001872.004343,70134424.0,306.0,325.0,1.0,1.0,0.0
1694001872.004343,70136516.0,347.0,324.0,1.0,1.0,0.0
1694001872.0053427,70138608.0,286.0,317.0,1.0,1.0,0.0
1694001872.0053427,70140700.0,329.0,319.0,1.0,1.0,0.0
1694001872.0063426,70142792.0,352.0,330.0,1.0,1.0,0.0
1694001872.0063426,70144884.0,331.0,330.0,1.0,1.0,0.0
1694001872.0073438,70146980.0,320.0,329.0,1.0,1.0,0.0
1694001872.0073438,70149072.0,305.0,327.0,1.0,1.0,0.0
1694001872.0083425,70151164.0,354.0,329.0,1.0,1.0,0.0
1694001872.0083425,70153256.0,336.0,327.0,1.0,1.0,0.0
1694001872.0093427,70155348.0,277.0,324.0,1.0,1.0,0.0
1694001872.0103421,70157444.0,338.0,326.0,1.0,1.0,0.0
1694001872.0103421,70159536.0,366.0,326.0,1.0,1.0,0.0
1694001872.0113425,70161628.0,303.0,321.0,1.0,1.0,0.0
1694001872.0113425,70163720.0,306.0,323.0,1.0,1.0,0.0
1694001872.0123441,70165812.0,328.0,329.0,1.0,1.0,0.0
1694001872.0123441,70167904.0,357.0,334.0,1.0,1.0,0.0
1694001872.0133436,70169996.0,385.0,332.0,1.0,1.0,0.0
1694001872.0133436,70172088.0,297.0,327.0,1.0,1.0,0.0
1694001872.014343,70174180.0,288.0,326.0,1.0,1.0,0.0
1694001872.014343,70176272.0,299.0,320.0,1.0,1.0,0.0
1694001872.060757,70178368.0,340.0,318.0,1.0,1.0,0.0
1694001872.0617578,70180460.0,341.0,325.0,1.0,1.0,0.0
1694001872.0617578,70182552.0,334.0,331.0,1.0,1.0,0.0
1694001872.0627568,70184644.0,335.0,326.0,1.0,1.0,0.0
1694001872.0637581,70186736.0,356.0,329.0,1.0,1.0,0.0
1694001872.0637581,70188828.0,344.0,328.0,1.0,1.0,0.0
1694001872.064758,70190920.0,267.0,332.0,1.0,1.0,0.0
1694001872.064758,70193016.0,306.0,327.0,1.0,1.0,0.0
1694001872.0657575,70195104.0,318.0,324.0,1.0,1.0,0.0
1694001872.0667577,70197200.0,331.0,326.0,1.0,1.0,0.0
1694001872.0667577,70199292.0,335.0,321.0,1.0,1.0,0.0
1694001872.0677574,70201384.0,342.0,321.0,1.0,1.0,0.0
1694001872.0677574,70203476.0,331.0,324.0,1.0,1.0,0.0
1694001872.0687575,70205568.0,328.0,332.0,1.0,1.0,0.0
1694001872.0687575,70207664.0,340.0,331.0,1.0,0.0,0.0
1694001872.0697577,70209756.0,316.0,330.0,0.0,0.0,0.0
1694001872.0707583,70211848.0,358.0,330.0,0.0,0.0,0.0
1694001872.0707583,70213940.0,367.0,324.0,0.0,0.0,0.0
1694001872.071759,70216032.0,209.0,320.0,0.0,0.0,0.0
1694001872.071759,70218124.0,318.0,321.0,0.0,0.0,0.0
1694001872.072758,70220216.0,338.0,321.0,0.0,0.0,0.0
1694001872.072758,70222308.0,346.0,323.0,0.0,0.0,0.0
1694001872.0737574,70224400.0,344.0,329.0,0.0,0.0,0.0
1694001872.0737574,70226496.0,336.0,331.0,0.0,0.0,0.0
1694001872.0747576,70228588.0,327.0,331.0,0.0,0.0,0.0
1694001872.0747576,70230680.0,324.0,330.0,0.0,0.0,0.0
1694001872.0757577,70232772.0,327.0,328.0,0.0,0.0,0.0
1694001872.0757577,70234864.0,336.0,327.0,0.0,0.0,0.0
1694001872.0767572,70236956.0,333.0,325.0,0.0,0.0,0.0
1694001872.1260147,70239048.0,337.0,314.0,0.0,0.0,0.0
1694001872.1270158,70241144.0,314.0,324.0,0.0,0.0,0.0
1694001872.1270158,70243232.0,315.0,323.0,0.0,0.0,0.0
1694001872.1280131,70245328.0,325.0,330.0,0.0,0.0,0.0
1694001872.1290126,70247420.0,327.0,333.0,0.0,0.0,0.0
1694001872.1290126,70249512.0,338.0,329.0,0.0,0.0,0.0
1694001872.1300142,70251604.0,322.0,329.0,0.0,0.0,0.0
1694001872.1310136,70253696.0,328.0,329.0,0.0,0.0,0.0
1694001872.1310136,70255788.0,333.0,319.0,0.0,0.0,0.0
1694001872.1320128,70257884.0,343.0,322.0,0.0,0.0,0.0
1694001872.1320128,70259976.0,297.0,321.0,0.0,0.0,0.0
1694001872.1330123,70262068.0,335.0,324.0,0.0,0.0,0.0
1694001872.1330123,70264160.0,343.0,329.0,0.0,0.0,0.0
1694001872.134013,70266252.0,340.0,332.0,0.0,0.0,0.0
1694001872.134013,70268344.0,293.0,331.0,0.0,0.0,0.0
1694001872.1350155,70270436.0,334.0,331.0,0.0,0.0,0.0
1694001872.1360133,70272528.0,328.0,328.0,0.0,0.0,0.0
1694001872.1360133,70274620.0,327.0,325.0,0.0,0.0,0.0
1694001872.137016,70276716.0,330.0,323.0,0.0,0.0,0.0
1694001872.137016,70278808.0,337.0,322.0,0.0,0.0,0.0
1694001872.1380131,70280900.0,337.0,317.0,0.0,0.0,0.0
1694001872.1380131,70282992.0,335.0,322.0,0.0,0.0,0.0
1694001872.1390135,70285084.0,300.0,329.0,0.0,0.0,0.0
1694001872.1390135,70287176.0,334.0,329.0,0.0,0.0,0.0
1694001872.1400123,70289268.0,338.0,333.0,0.0,0.0,0.0
1694001872.1400123,70291360.0,327.0,330.0,0.0,0.0,0.0
1694001872.1410136,70293456.0,323.0,327.0,0.0,0.0,0.0
1694001872.1410136,70295548.0,347.0,322.0,0.0,0.0,0.0
1694001872.1420128,70297640.0,324.0,322.0,0.0,0.0,0.0
1694001872.1430128,70299732.0,327.0,324.0,0.0,0.0,0.0
1694001872.1430128,70301824.0,327.0,325.0,0.0,0.0,0.0
1694001872.1440122,70303916.0,318.0,325.0,0.0,0.0,0.0
1694001872.1861167,70306008.0,326.0,327.0,0.0,0.0,0.0
1694001872.1871169,70308100.0,324.0,327.0,0.0,0.0,0.0
1694001872.188116,70310196.0,332.0,332.0,0.0,0.0,0.0
1694001872.188116,70312288.0,331.0,330.0,0.0,0.0,0.0
1694001872.189116,70314380.0,325.0,327.0,0.0,0.0,0.0
1694001872.189116,70316472.0,335.0,326.0,0.0,0.0,0.0
1694001872.1901162,70318564.0,363.0,319.0,0.0,0.0,0.0
1694001872.1901162,70320656.0,283.0,322.0,0.0,0.0,0.0
1694001872.1911159,70322748.0,320.0,324.0,0.0,0.0,0.0
1694001872.1921158,70324840.0,335.0,326.0,0.0,0.0,0.0
1694001872.1921158,70326936.0,335.0,329.0,0.0,0.0,0.0
1694001872.1931162,70329028.0,331.0,331.0,0.0,0.0,0.0
1694001872.1941156,70331120.0,324.0,331.0,0.0,0.0,0.0
1694001872.1941156,70333212.0,330.0,326.0,0.0,0.0,0.0
1694001872.1951158,70335304.0,329.0,327.0,0.0,0.0,0.0
1694001872.1961164,70337396.0,328.0,324.0,0.0,0.0,0.0
1694001872.1961164,70339488.0,326.0,321.0,0.0,0.0,0.0
1694001872.197116,70341580.0,326.0,321.0,0.0,0.0,0.0
1694001872.197116,70343672.0,328.0,322.0,0.0,0.0,0.0
1694001872.198116,70345768.0,329.0,328.0,0.0,0.0,0.0
1694001872.1991158,70347860.0,326.0,335.0,0.0,0.0,0.0
1694001872.1991158,70349952.0,324.0,332.0,0.0,0.0,0.0
1694001872.200116,70352044.0,333.0,321.0,0.0,0.0,0.0
1694001872.200116,70354136.0,323.0,326.0,0.0,0.0,0.0
1694001872.2011158,70356228.0,331.0,330.0,0.0,0.0,0.0
1694001872.2011158,70358324.0,318.0,327.0,0.0,0.0,0.0
1694001872.2021153,70360416.0,323.0,324.0,0.0,0.0,0.0
1694001872.2031167,70362508.0,335.0,322.0,0.0,0.0,0.0
1694001872.2031167,70364600.0,335.0,328.0,0.0,0.0,0.0
1694001872.2496884,70366692.0,328.0,328.0,0.0,0.0,0.0
1694001872.2506878,70368784.0,320.0,325.0,0.0,0.0,0.0
1694001872.2506878,70370876.0,325.0,325.0,0.0,0.0,0.0
1694001872.2516885,70372968.0,328.0,336.0,0.0,0.0,0.0
1694001872.2526917,70375060.0,328.0,333.0,0.0,0.0,0.0
1694001872.2526917,70377156.0,340.0,318.0,0.0,0.0,0.0
1694001872.253689,70379248.0,317.0,311.0,0.0,0.0,0.0
1694001872.253689,70381340.0,320.0,317.0,0.0,0.0,0.0
1694001872.254689,70383432.0,327.0,324.0,0.0,0.0,0.0
1694001872.2556906,70385524.0,331.0,326.0,0.0,0.0,0.0
1694001872.2556906,70387616.0,328.0,338.0,0.0,0.0,0.0
1694001872.2566895,70389708.0,326.0,339.0,0.0,0.0,0.0
1694001872.2566895,70391804.0,328.0,324.0,0.0,0.0,0.0
1694001872.2576883,70393896.0,328.0,317.0,0.0,0.0,0.0
1694001872.2576883,70395988.0,327.0,323.0,0.0,0.0,0.0
1694001872.258689,70398080.0,329.0,328.0,0.0,0.0,0.0
1694001872.2596881,70400172.0,327.0,327.0,0.0,0.0,0.0
1694001872.2596881,70402264.0,329.0,326.0,0.0,0.0,0.0
1694001872.2606883,70404356.0,333.0,315.0,0.0,0.0,0.0
1694001872.2606883,70406448.0,326.0,324.0,0.0,0.0,0.0
1694001872.261688,70408540.0,310.0,332.0,0.0,0.0,0.0
1694001872.261688,70410636.0,341.0,334.0,0.0,0.0,0.0
1694001872.2626889,70412728.0,332.0,332.0,0.0,0.0,0.0
1694001872.2626889,70414820.0,324.0,329.0,0.0,0.0,0.0
1694001872.2636888,70416912.0,322.0,326.0,0.0,0.0,0.0
1694001872.2636888,70419004.0,321.0,324.0,0.0,0.0,0.0
1694001872.2646885,70421096.0,331.0,322.0,0.0,0.0,0.0
1694001872.265689,70423188.0,326.0,323.0,1.0,0.0,0.0
1694001872.265689,70425280.0,327.0,327.0,1.0,0.0,0.0
1694001872.2666883,70427372.0,326.0,330.0,1.0,0.0,0.0
1694001872.3116884,70429468.0,329.0,328.0,1.0,0.0,0.0
1694001872.3126884,70431560.0,335.0,331.0,1.0,0.0,0.0
1694001872.3126884,70433652.0,337.0,327.0,1.0,0.0,0.0
1694001872.3136892,70435744.0,318.0,325.0,1.0,0.0,0.0
1694001872.3136892,70437836.0,323.0,323.0,1.0,0.0,0.0
1694001872.3146882,70439928.0,329.0,323.0,1.0,0.0,0.0
1694001872.3146882,70442020.0,329.0,325.0,1.0,0.0,0.0
1694001872.3156881,70444116.0,327.0,322.0,1.0,0.0,0.0
1694001872.31669,70446208.0,326.0,324.0,1.0,0.0,0.0
1694001872.31669,70448300.0,327.0,329.0,1.0,0.0,0.0
1694001872.317689,70450392.0,327.0,333.0,1.0,0.0,0.0
1694001872.317689,70452484.0,333.0,331.0,1.0,0.0,0.0
1694001872.3186936,70454576.0,328.0,327.0,1.0,0.0,0.0
1694001872.3196914,70456668.0,321.0,327.0,1.0,0.0,0.0
1694001872.3196914,70458764.0,327.0,322.0,1.0,0.0,0.0
1694001872.3206887,70460856.0,332.0,324.0,1.0,0.0,0.0
1694001872.3206887,70462948.0,328.0,322.0,1.0,0.0,0.0
1694001872.321691,70465040.0,327.0,324.0,1.0,0.0,0.0
1694001872.321691,70467132.0,326.0,328.0,1.0,0.0,0.0
1694001872.3226895,70469224.0,329.0,329.0,1.0,0.0,0.0
1694001872.323689,70471316.0,336.0,331.0,1.0,0.0,0.0
1694001872.323689,70473408.0,320.0,328.0,1.0,0.0,0.0
1694001872.3246887,70475500.0,324.0,328.0,1.0,0.0,0.0
1694001872.3246887,70477596.0,322.0,325.0,1.0,0.0,0.0
1694001872.3256893,70479688.0,332.0,323.0,1.0,0.0,0.0
1694001872.3256893,70481780.0,326.0,322.0,1.0,0.0,0.0
1694001872.3266883,70483872.0,325.0,318.0,1.0,0.0,0.0
1694001872.3266883,70485964.0,324.0,327.0,1.0,0.0,0.0
1694001872.3276896,70488056.0,334.0,335.0,1.0,0.0,0.0
1694001872.3286889,70490148.0,329.0,332.0,1.0,0.0,0.0
1694001872.375689,70492244.0,330.0,329.0,1.0,0.0,0.0
1694001872.3766885,70494336.0,328.0,328.0,1.0,0.0,0.0
1694001872.377689,70496428.0,328.0,319.0,1.0,0.0,0.0
1694001872.3786893,70498520.0,327.0,325.0,1.0,0.0,0.0
1694001872.3786893,70500612.0,328.0,322.0,1.0,0.0,0.0
1694001872.3796895,70502704.0,328.0,323.0,1.0,0.0,0.0
1694001872.380689,70504796.0,326.0,329.0,1.0,0.0,0.0
1694001872.38169,70506888.0,327.0,327.0,1.0,0.0,0.0
1694001872.38169,70508980.0,328.0,326.0,1.0,1.0,0.0
1694001872.382688,70511072.0,327.0,328.0,1.0,1.0,0.0
1694001872.382688,70513164.0,327.0,330.0,1.0,1.0,0.0
1694001872.3836887,70515260.0,327.0,328.0,1.0,1.0,0.0
1694001872.3836887,70517352.0,330.0,328.0,1.0,1.0,0.0
1694001872.3846886,70519444.0,326.0,321.0,1.0,1.0,0.0
1694001872.3856902,70521536.0,328.0,319.0,1.0,1.0,0.0
1694001872.386689,70523628.0,328.0,322.0,1.0,1.0,0.0
1694001872.386689,70525720.0,327.0,327.0,1.0,1.0,0.0
1694001872.3876896,70527812.0,328.0,330.0,1.0,1.0,0.0
1694001872.3886898,70529908.0,326.0,329.0,1.0,1.0,0.0
1694001872.3886898,70532000.0,327.0,331.0,1.0,1.0,0.0
1694001872.3896885,70534092.0,327.0,329.0,1.0,1.0,0.0
1694001872.3896885,70536184.0,328.0,329.0,1.0,1.0,0.0
1694001872.3906903,70538276.0,327.0,322.0,1.0,1.0,0.0
1694001872.3916914,70540368.0,328.0,322.0,1.0,1.0,0.0
1694001872.3916914,70542460.0,330.0,322.0,1.0,1.0,0.0
1694001872.392691,70544556.0,331.0,322.0,1.0,1.0,0.0
1694001872.3936923,70546648.0,327.0,327.0,1.0,1.0,0.0
1694001872.3936923,70548740.0,320.0,329.0,1.0,1.0,0.0
1694001872.3946927,70550832.0,324.0,333.0,1.0,1.0,0.0
1694001872.3956916,70552924.0,330.0,329.0,1.0,1.0,0.0
1694001872.3966923,70555016.0,327.0,328.0,1.0,1.0,0.0
1694001872.4386895,70557108.0,323.0,325.0,1.0,1.0,0.0
1694001872.4396896,70559204.0,337.0,325.0,1.0,1.0,0.0
1694001872.4396896,70561296.0,331.0,322.0,1.0,1.0,0.0
1694001872.4406888,70563388.0,320.0,320.0,1.0,1.0,0.0
1694001872.4406888,70565480.0,323.0,325.0,1.0,1.0,0.0
1694001872.4416888,70567572.0,315.0,327.0,1.0,1.0,0.0
1694001872.4426887,70569664.0,340.0,332.0,1.0,1.0,0.0
1694001872.4426887,70571756.0,340.0,332.0,1.0,1.0,0.0
1694001872.4436884,70573848.0,308.0,327.0,1.0,1.0,0.0
1694001872.4436884,70575940.0,324.0,323.0,1.0,1.0,0.0
1694001872.4446888,70578036.0,336.0,325.0,1.0,1.0,0.0
1694001872.4446888,70580128.0,324.0,325.0,1.0,1.0,0.0
1694001872.4456882,70582220.0,326.0,320.0,1.0,1.0,0.0
1694001872.4456882,70584312.0,324.0,322.0,1.0,1.0,0.0
1694001872.4466887,70586404.0,319.0,329.0,1.0,1.0,0.0
1694001872.4476883,70588496.0,331.0,330.0,1.0,1.0,0.0
1694001872.4476883,70590588.0,321.0,329.0,1.0,1.0,0.0
1694001872.44869,70592680.0,332.0,331.0,1.0,1.0,0.0
1694001872.44869,70594776.0,333.0,329.0,1.0,1.0,0.0
1694001872.4496887,70596868.0,336.0,326.0,1.0,1.0,0.0
1694001872.4496887,70598960.0,339.0,323.0,1.0,1.0,0.0
1694001872.4506905,70601052.0,311.0,321.0,1.0,1.0,0.0
1694001872.4516897,70603144.0,318.0,321.0,1.0,1.0,0.0
1694001872.4516897,70605236.0,318.0,325.0,1.0,1.0,0.0
1694001872.4526887,70607328.0,308.0,329.0,1.0,1.0,0.0
1694001872.4526887,70609420.0,321.0,329.0,1.0,1.0,0.0
1694001872.4536889,70611516.0,353.0,334.0,1.0,1.0,0.0
1694001872.4536889,70613608.0,346.0,326.0,1.0,1.0,0.0
1694001872.4546885,70615700.0,345.0,332.0,1.0,1.0,0.0
1694001872.4556887,70617792.0,313.0,329.0,1.0,1.0,0.0
1694001872.5016901,70619884.0,293.0,320.0,1.0,1.0,0.0
1694001872.5026884,70621976.0,347.0,311.0,1.0,1.0,0.0
1694001872.5026884,70624068.0,342.0,321.0,1.0,1.0,0.0
1694001872.503688,70626160.0,325.0,328.0,1.0,1.0,0.0
1694001872.503688,70628256.0,323.0,327.0,1.0,1.0,0.0
1694001872.5046892,70630348.0,352.0,334.0,1.0,1.0,1.0
1694001872.5046892,70632440.0,333.0,328.0,1.0,1.0,1.0
1694001872.505688,70634532.0,306.0,328.0,1.0,1.0,1.0
1694001872.505688,70636624.0,312.0,327.0,1.0,1.0,1.0
1694001872.5066886,70638716.0,346.0,326.0,1.0,1.0,1.0
1694001872.507688,70640808.0,325.0,322.0,1.0,1.0,1.0
1694001872.507688,70642900.0,298.0,324.0,1.0,1.0,1.0
1694001872.5086887,70644996.0,326.0,319.0,1.0,1.0,1.0
1694001872.5086887,70647088.0,337.0,325.0,1.0,1.0,1.0
1694001872.5096889,70649180.0,335.0,331.0,1.0,1.0,1.0
1694001872.5106885,70651272.0,338.0,334.0,1.0,1.0,1.0
1694001872.5106885,70653364.0,327.0,333.0,1.0,1.0,1.0
1694001872.5116887,70655456.0,320.0,324.0,1.0,1.0,1.0
1694001872.5116887,70657548.0,312.0,326.0,1.0,1.0,1.0
1694001872.5126886,70659640.0,328.0,323.0,1.0,1.0,1.0
1694001872.5126886,70661736.0,336.0,323.0,1.0,1.0,1.0
1694001872.5136888,70663828.0,329.0,321.0,1.0,1.0,1.0
1694001872.514689,70665920.0,307.0,325.0,1.0,1.0,1.0
1694001872.514689,70668012.0,354.0,329.0,1.0,1.0,1.0
1694001872.5156887,70670104.0,310.0,327.0,1.0,1.0,1.0
1694001872.5156887,70672196.0,329.0,331.0,1.0,1.0,1.0
1694001872.5166888,70674288.0,347.0,332.0,1.0,1.0,1.0
1694001872.5166888,70676384.0,336.0,328.0,1.0,1.0,1.0
1694001872.5176892,70678472.0,318.0,325.0,1.0,1.0,1.0
1694001872.5186894,70680568.0,292.0,324.0,1.0,1.0,1.0
1694001872.5186894,70682660.0,322.0,320.0,1.0,1.0,1.0
1694001872.5627124,70684752.0,349.0,325.0,1.0,1.0,1.0
1694001872.563713,70686844.0,325.0,322.0,1.0,1.0,1.0
1694001872.563713,70688936.0,334.0,329.0,1.0,1.0,1.0
1694001872.5647132,70691028.0,341.0,332.0,1.0,1.0,1.0
1694001872.5657125,70693124.0,354.0,333.0,1.0,1.0,1.0
1694001872.5657125,70695216.0,330.0,325.0,1.0,1.0,1.0
1694001872.566725,70697308.0,304.0,328.0,1.0,1.0,1.0
1694001872.5677137,70699400.0,285.0,319.0,1.0,1.0,1.0
1694001872.5687134,70701492.0,343.0,324.0,1.0,1.0,1.0
1694001872.5687134,70703584.0,371.0,324.0,1.0,1.0,1.0
1694001872.5697134,70705676.0,347.0,324.0,1.0,1.0,1.0
1694001872.5697134,70707768.0,333.0,326.0,0.0,1.0,1.0
1694001872.5707133,70709860.0,321.0,330.0,0.0,1.0,1.0
1694001872.5707133,70711956.0,301.0,330.0,0.0,1.0,1.0
1694001872.571713,70714048.0,331.0,328.0,0.0,1.0,1.0
1694001872.5727124,70716140.0,339.0,331.0,0.0,1.0,1.0
1694001872.5727124,70718232.0,319.0,325.0,0.0,1.0,1.0
1694001872.5737128,70720324.0,332.0,327.0,0.0,0.0,1.0
1694001872.5737128,70722416.0,328.0,322.0,0.0,0.0,1.0
1694001872.5747137,70724508.0,304.0,317.0,0.0,0.0,1.0
1694001872.5747137,70726604.0,326.0,323.0,0.0,0.0,1.0
1694001872.575713,70728692.0,336.0,328.0,0.0,0.0,1.0
1694001872.575713,70730788.0,343.0,331.0,0.0,0.0,1.0
1694001872.5767121,70732880.0,321.0,330.0,0.0,0.0,1.0
1694001872.5777123,70734972.0,335.0,331.0,0.0,0.0,1.0
1694001872.5777123,70737064.0,330.0,328.0,0.0,0.0,1.0
1694001872.578714,70739156.0,290.0,325.0,0.0,0.0,1.0
1694001872.578714,70741248.0,325.0,322.0,0.0,0.0,1.0
1694001872.579713,70743344.0,313.0,321.0,0.0,0.0,1.0
1694001872.628117,70745436.0,335.0,322.0,0.0,0.0,1.0
1694001872.6291142,70747528.0,336.0,324.0,0.0,0.0,1.0
1694001872.6291142,70749620.0,331.0,327.0,0.0,0.0,1.0
1694001872.6301157,70751712.0,330.0,330.0,0.0,0.0,1.0
1694001872.6301157,70753804.0,331.0,330.0,0.0,0.0,1.0
1694001872.6311145,70755896.0,323.0,326.0,0.0,0.0,1.0
1694001872.6321151,70757988.0,331.0,328.0,0.0,0.0,1.0
1694001872.6321151,70760080.0,328.0,326.0,0.0,0.0,1.0
1694001872.6331162,70762176.0,331.0,324.0,0.0,0.0,1.0
1694001872.6331162,70764268.0,325.0,322.0,0.0,0.0,1.0
1694001872.6341162,70766360.0,329.0,323.0,0.0,0.0,1.0
1694001872.6341162,70768452.0,314.0,329.0,0.0,0.0,1.0
1694001872.6351156,70770544.0,323.0,329.0,0.0,0.0,1.0
1694001872.6351156,70772636.0,336.0,328.0,0.0,0.0,0.0
1694001872.6361153,70774728.0,333.0,333.0,0.0,0.0,0.0
1694001872.6371155,70776824.0,326.0,323.0,0.0,0.0,0.0
1694001872.6371155,70778916.0,324.0,319.0,0.0,0.0,0.0
1694001872.6381145,70781008.0,328.0,326.0,0.0,0.0,0.0
1694001872.6381145,70783100.0,327.0,321.0,0.0,0.0,0.0
1694001872.6391153,70785192.0,326.0,325.0,0.0,0.0,0.0
1694001872.6391153,70787284.0,325.0,330.0,0.0,0.0,0.0
1694001872.6401155,70789376.0,326.0,328.0,0.0,0.0,0.0
1694001872.6401155,70791468.0,327.0,324.0,0.0,0.0,0.0
1694001872.641115,70793560.0,327.0,330.0,0.0,0.0,0.0
1694001872.6421144,70795656.0,328.0,329.0,0.0,0.0,0.0
1694001872.6421144,70797748.0,328.0,329.0,0.0,0.0,0.0
1694001872.6431155,70799840.0,328.0,327.0,0.0,0.0,0.0
1694001872.6431155,70801932.0,327.0,320.0,0.0,0.0,0.0
1694001872.6441174,70804024.0,327.0,323.0,0.0,0.0,0.0
1694001872.6441174,70806116.0,327.0,325.0,0.0,0.0,0.0
1694001872.645115,70808208.0,327.0,326.0,0.0,0.0,0.0
1694001872.645115,70810300.0,328.0,334.0,0.0,0.0,0.0
1694001872.6875248,70812396.0,326.0,333.0,0.0,0.0,0.0
1694001872.688525,70814488.0,325.0,326.0,0.0,0.0,0.0
1694001872.688525,70816580.0,331.0,325.0,0.0,0.0,0.0
1694001872.689525,70818672.0,344.0,326.0,0.0,0.0,0.0
1694001872.6905267,70820764.0,314.0,328.0,0.0,0.0,0.0
1694001872.6905267,70822856.0,318.0,319.0,0.0,0.0,0.0
1694001872.691525,70824948.0,346.0,313.0,0.0,0.0,0.0
1694001872.691525,70827040.0,324.0,321.0,0.0,0.0,0.0
1694001872.6925251,70829136.0,303.0,327.0,0.0,0.0,0.0
1694001872.6925251,70831228.0,333.0,331.0,0.0,0.0,0.0
1694001872.6935248,70833320.0,333.0,335.0,0.0,0.0,0.0
1694001872.694525,70835412.0,322.0,334.0,0.0,0.0,0.0
1694001872.694525,70837504.0,334.0,334.0,0.0,0.0,0.0
1694001872.695525,70839596.0,332.0,330.0,0.0,0.0,0.0
1694001872.695525,70841688.0,325.0,326.0,0.0,0.0,0.0
1694001872.6965258,70843780.0,326.0,322.0,0.0,0.0,0.0
1694001872.6965258,70845876.0,330.0,322.0,0.0,0.0,0.0
1694001872.6975248,70847964.0,335.0,322.0,0.0,0.0,0.0
1694001872.6975248,70850060.0,319.0,319.0,0.0,0.0,0.0
1694001872.6985254,70852152.0,317.0,309.0,0.0,0.0,0.0
1694001872.6995256,70854244.0,333.0,327.0,0.0,0.0,0.0
1694001872.6995256,70856336.0,334.0,334.0,0.0,0.0,0.0
1694001872.7005253,70858428.0,339.0,334.0,0.0,0.0,0.0
1694001872.7005253,70860524.0,316.0,329.0,0.0,0.0,0.0
1694001872.7015262,70862612.0,318.0,326.0,0.0,0.0,0.0
1694001872.7015262,70864708.0,329.0,324.0,0.0,0.0,0.0
1694001872.702525,70866800.0,328.0,321.0,0.0,0.0,0.0
1694001872.7035244,70868892.0,327.0,326.0,0.0,0.0,0.0
1694001872.7526226,70870984.0,328.0,333.0,0.0,0.0,0.0
1694001872.753622,70873076.0,329.0,333.0,0.0,0.0,0.0
1694001872.753622,70875168.0,344.0,336.0,0.0,0.0,0.0
1694001872.7546225,70877264.0,323.0,329.0,0.0,0.0,0.0
1694001872.7556224,70879356.0,302.0,321.0,0.0,0.0,0.0
1694001872.7556224,70881448.0,337.0,312.0,0.0,0.0,0.0
1694001872.756624,70883540.0,299.0,323.0,0.0,0.0,0.0
1694001872.757622,70885632.0,362.0,324.0,0.0,0.0,0.0
1694001872.757622,70887724.0,311.0,325.0,0.0,0.0,0.0
1694001872.7586231,70889816.0,302.0,325.0,0.0,0.0,0.0
1694001872.7586231,70891908.0,319.0,330.0,0.0,0.0,0.0
1694001872.759622,70894004.0,323.0,336.0,0.0,0.0,0.0
1694001872.759622,70896092.0,325.0,330.0,0.0,0.0,0.0
1694001872.760622,70898184.0,321.0,328.0,0.0,0.0,0.0
1694001872.760622,70900280.0,331.0,323.0,0.0,0.0,0.0
1694001872.7616222,70902372.0,341.0,322.0,0.0,0.0,0.0
1694001872.7616222,70904464.0,335.0,325.0,0.0,0.0,0.0
1694001872.7626219,70906556.0,327.0,323.0,0.0,0.0,0.0
1694001872.763622,70908652.0,328.0,325.0,0.0,0.0,0.0
1694001872.763622,70910740.0,326.0,327.0,0.0,0.0,0.0
1694001872.764622,70912832.0,326.0,327.0,0.0,0.0,0.0
1694001872.764622,70914928.0,323.0,331.0,0.0,0.0,0.0
1694001872.7656295,70917020.0,327.0,332.0,0.0,0.0,0.0
1694001872.7656295,70919112.0,334.0,321.0,0.0,0.0,0.0
1694001872.7666223,70921204.0,329.0,330.0,1.0,0.0,0.0
1694001872.7666223,70923296.0,324.0,328.0,1.0,0.0,0.0
1694001872.7676222,70925388.0,340.0,318.0,1.0,0.0,0.0
1694001872.7676222,70927484.0,346.0,322.0,1.0,0.0,0.0
1694001872.7686224,70929576.0,311.0,322.0,1.0,0.0,0.0
1694001872.7696226,70931668.0,319.0,325.0,1.0,0.0,0.0
1694001872.7696226,70933760.0,313.0,332.0,1.0,0.0,0.0
1694001872.811534,70935852.0,297.0,332.0,1.0,0.0,0.0
1694001872.8125339,70937944.0,350.0,327.0,1.0,0.0,0.0
1694001872.8125339,70940036.0,315.0,332.0,1.0,0.0,0.0
1694001872.8135343,70942128.0,332.0,328.0,1.0,0.0,0.0
1694001872.8145337,70944220.0,334.0,318.0,1.0,0.0,0.0
1694001872.8145337,70946312.0,332.0,320.0,1.0,0.0,0.0
1694001872.8155372,70948404.0,347.0,327.0,1.0,0.0,0.0
1694001872.8165343,70950500.0,305.0,328.0,1.0,0.0,0.0
1694001872.8165343,70952592.0,324.0,326.0,1.0,0.0,0.0
1694001872.8175337,70954684.0,326.0,332.0,1.0,0.0,0.0
1694001872.8175337,70956776.0,330.0,333.0,1.0,0.0,0.0
1694001872.8185363,70958868.0,337.0,330.0,1.0,0.0,0.0
1694001872.8185363,70960960.0,328.0,326.0,1.0,0.0,0.0
1694001872.819534,70963056.0,350.0,320.0,1.0,0.0,0.0
1694001872.8205366,70965148.0,356.0,319.0,1.0,0.0,0.0
1694001872.8205366,70967240.0,248.0,318.0,1.0,0.0,0.0
1694001872.8215346,70969332.0,306.0,328.0,1.0,0.0,0.0
1694001872.8215346,70971424.0,342.0,331.0,1.0,0.0,0.0
1694001872.822536,70973516.0,333.0,331.0,1.0,0.0,0.0
1694001872.822536,70975608.0,331.0,331.0,1.0,0.0,0.0
1694001872.8235338,70977700.0,362.0,329.0,1.0,0.0,0.0
1694001872.8235338,70979796.0,307.0,329.0,1.0,0.0,0.0
1694001872.8245356,70981888.0,333.0,328.0,1.0,0.0,0.0
1694001872.8255417,70983980.0,328.0,327.0,1.0,0.0,0.0
1694001872.8255417,70986072.0,331.0,319.0,1.0,0.0,0.0
1694001872.8265367,70988164.0,329.0,320.0,1.0,0.0,0.0
1694001872.8265367,70990256.0,316.0,318.0,1.0,0.0,0.0
1694001872.8275344,70992348.0,322.0,321.0,1.0,0.0,0.0
1694001872.8275344,70994444.0,325.0,336.0,1.0,0.0,0.0
1694001872.875715,70996532.0,344.0,333.0,1.0,0.0,0.0
1694001872.8767145,70998628.0,307.0,331.0,1.0,0.0,0.0
1694001872.8767145,71000720.0,310.0,329.0,1.0,0.0,0.0
1694001872.8777153,71002812.0,343.0,329.0,1.0,0.0,0.0
1694001872.878715,71004904.0,331.0,323.0,1.0,0.0,0.0
1694001872.878715,71006996.0,330.0,318.0,1.0,0.0,0.0
1694001872.879716,71009088.0,332.0,322.0,1.0,0.0,0.0
1694001872.8807156,71011184.0,318.0,322.0,1.0,0.0,0.0
1694001872.8817172,71013276.0,312.0,332.0,1.0,0.0,0.0
1694001872.8817172,71015364.0,326.0,335.0,1.0,0.0,0.0
1694001872.8827162,71017460.0,334.0,337.0,1.0,0.0,0.0
1694001872.8827162,71019552.0,314.0,335.0,1.0,0.0,0.0
1694001872.8837154,71021644.0,328.0,315.0,1.0,0.0,0.0
1694001872.8847163,71023736.0,328.0,318.0,1.0,0.0,0.0
1694001872.8847163,71025828.0,326.0,319.0,1.0,0.0,0.0
1694001872.885716,71027924.0,323.0,317.0,1.0,0.0,0.0
1694001872.885716,71030016.0,329.0,316.0,1.0,0.0,0.0
1694001872.8867154,71032108.0,323.0,326.0,1.0,0.0,0.0
1694001872.8867154,71034200.0,313.0,332.0,1.0,0.0,0.0
1694001872.8877153,71036292.0,339.0,334.0,1.0,0.0,0.0
1694001872.8877153,71038384.0,317.0,334.0,1.0,0.0,0.0
1694001872.888715,71040476.0,327.0,331.0,1.0,0.0,0.0
1694001872.888715,71042568.0,331.0,329.0,1.0,0.0,0.0
1694001872.8897152,71044660.0,326.0,321.0,1.0,0.0,0.0
